ECG,X,Y,Z,Timestamp
274,0.20,-9.30,-1.33,2024-01-20 15:12:57.541
271,0.24,-9.34,-1.41,2024-01-20 15:12:57.576
288,0.20,-9.34,-1.33,2024-01-20 15:12:57.608
305,0.24,-9.30,-1.33,2024-01-20 15:12:57.674
410,0.24,-9.34,-1.33,2024-01-20 15:12:57.708
379,0.24,-9.34,-1.33,2024-01-20 15:12:57.742
276,0.20,-9.34,-1.37,2024-01-20 15:12:57.808
260,0.24,-9.30,-1.37,2024-01-20 15:12:57.840
267,0.24,-9.30,-1.33,2024-01-20 15:12:57.874
372,0.20,-9.38,-1.33,2024-01-20 15:12:57.940
400,0.20,-9.34,-1.33,2024-01-20 15:12:57.973
318,0.16,-9.30,-1.37,2024-01-20 15:12:58.007
258,0.20,-9.30,-1.33,2024-01-20 15:12:58.073
282,0.24,-9.38,-1.37,2024-01-20 15:12:58.106
331,0.24,-9.30,-1.33,2024-01-20 15:12:58.140
422,0.24,-9.34,-1.41,2024-01-20 15:12:58.174
361,0.24,-9.30,-1.41,2024-01-20 15:12:58.240
309,0.24,-9.34,-1.37,2024-01-20 15:12:58.273
261,0.27,-9.38,-1.37,2024-01-20 15:12:58.307
282,0.27,-9.38,-1.33,2024-01-20 15:12:58.373
380,0.24,-9.30,-1.33,2024-01-20 15:12:58.407
403,0.24,-9.34,-1.37,2024-01-20 15:12:58.440
661,0.20,-9.30,-1.41,2024-01-20 15:12:58.506
253,0.20,-9.30,-1.37,2024-01-20 15:12:58.539
280,0.27,-9.34,-1.29,2024-01-20 15:12:58.574
344,0.27,-9.30,-1.41,2024-01-20 15:12:58.639
440,0.24,-9.30,-1.33,2024-01-20 15:12:58.673
383,0.24,-9.34,-1.37,2024-01-20 15:12:58.706
277,0.20,-9.34,-1.37,2024-01-20 15:12:58.772
279,0.20,-9.34,-1.37,2024-01-20 15:12:58.806
280,0.27,-9.34,-1.37,2024-01-20 15:12:58.839
396,0.24,-9.38,-1.33,2024-01-20 15:12:58.872
389,0.24,-9.38,-1.37,2024-01-20 15:12:58.938
298,0.24,-9.34,-1.41,2024-01-20 15:12:58.972
264,0.24,-9.38,-1.37,2024-01-20 15:12:59.005
288,0.24,-9.34,-1.45,2024-01-20 15:12:59.072
355,0.24,-9.34,-1.37,2024-01-20 15:12:59.105
418,0.24,-9.34,-1.33,2024-01-20 15:12:59.138
311,0.16,-9.34,-1.41,2024-01-20 15:12:59.204
267,0.31,-9.38,-1.33,2024-01-20 15:12:59.238
260,0.20,-9.30,-1.37,2024-01-20 15:12:59.271
303,0.27,-9.41,-1.37,2024-01-20 15:12:59.338
417,0.24,-9.41,-1.41,2024-01-20 15:12:59.371
400,0.16,-9.38,-1.37,2024-01-20 15:12:59.404
284,0.27,-9.38,-1.33,2024-01-20 15:12:59.470
260,0.24,-9.38,-1.37,2024-01-20 15:12:59.504
639,0.24,-9.30,-1.41,2024-01-20 15:12:59.537
228,0.27,-9.38,-1.37,2024-01-20 15:12:59.571
432,0.16,-9.30,-1.33,2024-01-20 15:12:59.637
342,0.24,-9.38,-1.33,2024-01-20 15:12:59.671
282,0.20,-9.30,-1.41,2024-01-20 15:12:59.704
275,0.27,-9.34,-1.33,2024-01-20 15:12:59.771
295,0.24,-9.38,-1.33,2024-01-20 15:12:59.804
464,0.24,-9.38,-1.37,2024-01-20 15:12:59.837
438,0.31,-9.38,-1.26,2024-01-20 15:12:59.903
325,0.16,-9.30,-1.29,2024-01-20 15:12:59.936
279,0.27,-9.34,-1.29,2024-01-20 15:12:59.970
362,0.31,-9.30,-1.57,2024-01-20 15:13:00.036
407,0.27,-9.30,-1.49,2024-01-20 15:13:00.069
393,0.31,-9.38,-1.26,2024-01-20 15:13:00.103
201,0.12,-9.38,-1.29,2024-01-20 15:13:00.169
329,0.31,-9.26,-1.45,2024-01-20 15:13:00.203
175,0.24,-9.30,-1.45,2024-01-20 15:13:00.236
172,0.20,-9.34,-1.29,2024-01-20 15:13:00.269
252,0.27,-9.34,-1.41,2024-01-20 15:13:00.336
259,0.24,-9.30,-1.45,2024-01-20 15:13:00.369
283,0.27,-9.30,-1.37,2024-01-20 15:13:00.402
103,0.20,-9.30,-1.33,2024-01-20 15:13:00.469
242,0.24,-9.34,-1.33,2024-01-20 15:13:00.503
516,0.27,-9.26,-1.41,2024-01-20 15:13:00.536
662,0.20,-9.38,-1.33,2024-01-20 15:13:00.602
662,0.20,-9.34,-1.41,2024-01-20 15:13:00.636
662,0.27,-9.34,-1.37,2024-01-20 15:13:00.669
662,0.20,-9.38,-1.37,2024-01-20 15:13:00.735
662,0.20,-9.34,-1.37,2024-01-20 15:13:00.768
662,0.20,-9.34,-1.37,2024-01-20 15:13:00.802
663,0.20,-9.26,-1.37,2024-01-20 15:13:00.868
662,0.27,-9.34,-1.33,2024-01-20 15:13:00.901
662,0.20,-9.34,-1.37,2024-01-20 15:13:00.935
662,0.24,-9.38,-1.45,2024-01-20 15:13:00.968
662,0.24,-9.34,-1.37,2024-01-20 15:13:01.035
662,0.24,-9.30,-1.33,2024-01-20 15:13:01.068
662,0.27,-9.38,-1.33,2024-01-20 15:13:01.101
662,0.20,-9.38,-1.33,2024-01-20 15:13:01.168
662,0.27,-9.34,-1.33,2024-01-20 15:13:01.201
662,0.20,-9.30,-1.41,2024-01-20 15:13:01.235
662,0.16,-9.34,-1.41,2024-01-20 15:13:01.301
491,0.27,-9.38,-1.29,2024-01-20 15:13:01.334
337,0.24,-9.30,-1.37,2024-01-20 15:13:01.368
216,0.24,-9.34,-1.33,2024-01-20 15:13:01.434
170,0.20,-9.30,-1.29,2024-01-20 15:13:01.467
140,0.27,-9.34,-1.41,2024-01-20 15:13:01.501
101,0.27,-9.34,-1.37,2024-01-20 15:13:01.566
0,0.20,-9.34,-1.37,2024-01-20 15:13:01.600
0,0.27,-9.34,-1.37,2024-01-20 15:13:01.634
0,0.24,-9.30,-1.45,2024-01-20 15:13:01.666
0,0.24,-9.34,-1.33,2024-01-20 15:13:01.733
182,0.27,-9.34,-1.37,2024-01-20 15:13:01.766
0,0.24,-9.34,-1.33,2024-01-20 15:13:01.800
0,0.20,-9.34,-1.37,2024-01-20 15:13:01.833
0,0.27,-9.34,-1.37,2024-01-20 15:13:01.900
82,0.20,-9.34,-1.41,2024-01-20 15:13:01.933
34,0.20,-9.30,-1.37,2024-01-20 15:13:01.966
31,0.24,-9.38,-1.33,2024-01-20 15:13:02.000
33,0.20,-9.30,-1.45,2024-01-20 15:13:02.066
0,0.27,-9.38,-1.33,2024-01-20 15:13:02.099
0,0.20,-9.30,-1.33,2024-01-20 15:13:02.133
0,0.24,-9.38,-1.33,2024-01-20 15:13:02.166
67,0.20,-9.34,-1.41,2024-01-20 15:13:02.233
121,0.24,-9.34,-1.37,2024-01-20 15:13:02.266
178,0.27,-9.34,-1.33,2024-01-20 15:13:02.299
98,0.24,-9.34,-1.37,2024-01-20 15:13:02.366
68,0.27,-9.38,-1.37,2024-01-20 15:13:02.399
89,0.24,-9.30,-1.37,2024-01-20 15:13:02.433
167,0.20,-9.34,-1.33,2024-01-20 15:13:02.498
179,0.27,-9.34,-1.29,2024-01-20 15:13:02.532
232,0.24,-9.38,-1.37,2024-01-20 15:13:02.565
209,0.24,-9.30,-1.37,2024-01-20 15:13:02.598
266,0.20,-9.30,-1.33,2024-01-20 15:13:02.665
368,0.20,-9.26,-1.37,2024-01-20 15:13:02.698
603,0.24,-9.34,-1.41,2024-01-20 15:13:02.732
287,0.24,-9.34,-1.45,2024-01-20 15:13:02.799
608,0.20,-9.34,-1.33,2024-01-20 15:13:02.831
624,0.24,-9.34,-1.41,2024-01-20 15:13:02.865
654,0.24,-9.30,-1.33,2024-01-20 15:13:02.931
631,0.24,-9.34,-1.37,2024-01-20 15:13:02.964
580,0.20,-9.30,-1.37,2024-01-20 15:13:02.998
546,0.24,-9.34,-1.37,2024-01-20 15:13:03.064
519,0.20,-9.34,-1.41,2024-01-20 15:13:03.098
315,0.24,-9.38,-1.29,2024-01-20 15:13:03.131
198,0.20,-9.30,-1.37,2024-01-20 15:13:03.197
162,0.24,-9.34,-1.33,2024-01-20 15:13:03.230
162,0.24,-9.38,-1.37,2024-01-20 15:13:03.264
131,0.20,-9.34,-1.37,2024-01-20 15:13:03.297
76,0.27,-9.34,-1.41,2024-01-20 15:13:03.364
82,0.24,-9.30,-1.41,2024-01-20 15:13:03.397
110,0.24,-9.34,-1.37,2024-01-20 15:13:03.431
136,0.20,-9.30,-1.45,2024-01-20 15:13:03.497
210,0.27,-9.34,-1.33,2024-01-20 15:13:03.531
148,0.20,-9.38,-1.37,2024-01-20 15:13:03.563
105,0.27,-9.34,-1.41,2024-01-20 15:13:03.630
139,0.24,-9.34,-1.37,2024-01-20 15:13:03.663
411,0.16,-9.34,-1.37,2024-01-20 15:13:03.698
0,0.24,-9.38,-1.37,2024-01-20 15:13:03.730
179,0.20,-9.34,-1.29,2024-01-20 15:13:03.796
236,0.31,-9.34,-1.37,2024-01-20 15:13:03.830
260,0.27,-9.34,-1.37,2024-01-20 15:13:03.863
290,0.24,-9.38,-1.41,2024-01-20 15:13:03.929
272,0.27,-9.38,-1.37,2024-01-20 15:13:03.963
276,0.24,-9.34,-1.37,2024-01-20 15:13:03.996
235,0.24,-9.30,-1.37,2024-01-20 15:13:04.062
194,0.27,-9.34,-1.37,2024-01-20 15:13:04.096
292,0.24,-9.34,-1.37,2024-01-20 15:13:04.129
275,0.27,-9.34,-1.33,2024-01-20 15:13:04.196
316,0.27,-9.57,-1.45,2024-01-20 15:13:04.228
330,0.24,-9.22,-1.33,2024-01-20 15:13:04.263
354,0.27,-9.26,-1.41,2024-01-20 15:13:04.329
368,0.27,-9.38,-1.45,2024-01-20 15:13:04.362
341,0.27,-9.38,-1.29,2024-01-20 15:13:04.396
426,0.20,-9.34,-1.37,2024-01-20 15:13:04.429
396,0.24,-9.30,-1.45,2024-01-20 15:13:04.495
472,0.31,-9.30,-1.33,2024-01-20 15:13:04.528
263,0.27,-9.38,-1.29,2024-01-20 15:13:04.562
373,0.24,-9.34,-1.37,2024-01-20 15:13:04.628
384,0.20,-9.34,-1.41,2024-01-20 15:13:04.662
453,0.31,-9.41,-1.33,2024-01-20 15:13:04.695
478,0.20,-9.30,-1.41,2024-01-20 15:13:04.762
509,0.27,-9.38,-1.37,2024-01-20 15:13:04.795
350,0.24,-9.41,-1.41,2024-01-20 15:13:04.828
290,0.20,-9.34,-1.33,2024-01-20 15:13:04.894
281,0.16,-9.30,-1.29,2024-01-20 15:13:04.928
358,0.24,-9.30,-1.29,2024-01-20 15:13:04.961
313,0.24,-9.38,-1.41,2024-01-20 15:13:05.028
235,0.20,-9.30,-1.41,2024-01-20 15:13:05.061
229,0.24,-9.38,-1.33,2024-01-20 15:13:05.095
252,0.24,-9.34,-1.33,2024-01-20 15:13:05.128
289,0.24,-9.38,-1.33,2024-01-20 15:13:05.194
330,0.27,-9.41,-1.33,2024-01-20 15:13:05.227
273,0.27,-9.38,-1.33,2024-01-20 15:13:05.260
243,0.24,-9.34,-1.37,2024-01-20 15:13:05.327
265,0.27,-9.34,-1.33,2024-01-20 15:13:05.361
661,0.24,-9.30,-1.37,2024-01-20 15:13:05.394
292,0.20,-9.26,-1.33,2024-01-20 15:13:05.460
277,0.24,-9.34,-1.33,2024-01-20 15:13:05.493
276,0.20,-9.30,-1.33,2024-01-20 15:13:05.527
310,0.24,-9.38,-1.37,2024-01-20 15:13:05.593
333,0.24,-9.38,-1.37,2024-01-20 15:13:05.627
354,0.24,-9.34,-1.29,2024-01-20 15:13:05.660
342,0.20,-9.38,-1.41,2024-01-20 15:13:05.726
291,0.20,-9.30,-1.37,2024-01-20 15:13:05.760
296,0.24,-9.38,-1.33,2024-01-20 15:13:05.793
335,0.24,-9.34,-1.33,2024-01-20 15:13:05.826
349,0.24,-9.34,-1.33,2024-01-20 15:13:05.892
345,0.20,-9.30,-1.37,2024-01-20 15:13:05.926
315,0.24,-9.38,-1.37,2024-01-20 15:13:05.959
305,0.24,-9.30,-1.33,2024-01-20 15:13:06.026
319,0.24,-9.34,-1.33,2024-01-20 15:13:06.059
347,0.20,-9.30,-1.37,2024-01-20 15:13:06.092
381,0.24,-9.38,-1.33,2024-01-20 15:13:06.159
658,0.20,-9.34,-1.37,2024-01-20 15:13:06.192
192,0.20,-9.34,-1.37,2024-01-20 15:13:06.225
386,0.24,-9.38,-1.37,2024-01-20 15:13:06.292
409,0.24,-9.34,-1.37,2024-01-20 15:13:06.325
441,0.20,-9.30,-1.37,2024-01-20 15:13:06.358
429,0.24,-9.34,-1.33,2024-01-20 15:13:06.424
368,0.20,-9.34,-1.37,2024-01-20 15:13:06.458
287,0.24,-9.30,-1.37,2024-01-20 15:13:06.492
273,0.24,-9.34,-1.37,2024-01-20 15:13:06.526
298,0.27,-9.34,-1.41,2024-01-20 15:13:06.591
335,0.24,-9.34,-1.37,2024-01-20 15:13:06.624
314,0.24,-9.38,-1.41,2024-01-20 15:13:06.658
279,0.27,-9.34,-1.41,2024-01-20 15:13:06.725
291,0.24,-9.38,-1.33,2024-01-20 15:13:06.758
344,0.24,-9.34,-1.41,2024-01-20 15:13:06.791
352,0.20,-9.38,-1.33,2024-01-20 15:13:06.857
311,0.24,-9.34,-1.33,2024-01-20 15:13:06.891
247,0.20,-9.34,-1.33,2024-01-20 15:13:06.924
661,0.24,-9.30,-1.37,2024-01-20 15:13:06.991
167,0.24,-9.34,-1.37,2024-01-20 15:13:07.023
284,0.20,-9.34,-1.29,2024-01-20 15:13:07.057
391,0.24,-9.38,-1.18,2024-01-20 15:13:07.124
294,0.24,-9.38,-1.29,2024-01-20 15:13:07.157
327,0.20,-9.38,-1.29,2024-01-20 15:13:07.190
369,0.35,-9.22,-1.65,2024-01-20 15:13:07.224
372,0.31,-9.34,-1.57,2024-01-20 15:13:07.290
427,0.12,-9.38,-1.22,2024-01-20 15:13:07.323
372,0.16,-9.34,-1.29,2024-01-20 15:13:07.356
427,0.31,-9.34,-1.45,2024-01-20 15:13:07.423
357,0.24,-9.34,-1.41,2024-01-20 15:13:07.456
239,0.16,-9.34,-1.29,2024-01-20 15:13:07.490
408,0.24,-9.34,-1.45,2024-01-20 15:13:07.556
373,0.24,-9.30,-1.45,2024-01-20 15:13:07.589
310,0.16,-9.34,-1.33,2024-01-20 15:13:07.623
313,0.24,-9.41,-1.33,2024-01-20 15:13:07.689
322,0.35,-9.41,-1.33,2024-01-20 15:13:07.723
661,0.08,-9.34,-1.49,2024-01-20 15:13:07.756
386,0.35,-9.30,-1.41,2024-01-20 15:13:07.822
391,0.27,-9.34,-1.33,2024-01-20 15:13:07.855
304,0.12,-9.30,-1.33,2024-01-20 15:13:07.890
288,0.39,-9.34,-1.37,2024-01-20 15:13:07.923
300,0.16,-9.34,-1.33,2024-01-20 15:13:07.988
324,0.08,-9.30,-1.41,2024-01-20 15:13:08.022
409,0.39,-9.38,-1.37,2024-01-20 15:13:08.055
392,0.16,-9.38,-1.33,2024-01-20 15:13:08.122
359,0.35,-9.38,-1.33,2024-01-20 15:13:08.155
261,0.20,-9.30,-1.37,2024-01-20 15:13:08.189
274,0.16,-9.34,-1.53,2024-01-20 15:13:08.255
364,0.27,-9.30,-1.37,2024-01-20 15:13:08.288
389,0.24,-9.30,-1.45,2024-01-20 15:13:08.322
372,0.20,-9.38,-1.41,2024-01-20 15:13:08.388
267,0.24,-9.38,-1.29,2024-01-20 15:13:08.421
348,0.16,-9.34,-1.33,2024-01-20 15:13:08.455
435,0.24,-9.34,-1.33,2024-01-20 15:13:08.521
662,0.31,-9.34,-1.37,2024-01-20 15:13:08.554
136,0.24,-9.34,-1.22,2024-01-20 15:13:08.588
242,0.16,-9.38,-1.37,2024-01-20 15:13:08.621
305,0.24,-9.34,-1.41,2024-01-20 15:13:08.688
303,0.20,-9.34,-1.33,2024-01-20 15:13:08.721
386,0.16,-9.30,-1.33,2024-01-20 15:13:08.754
273,0.24,-9.30,-1.33,2024-01-20 15:13:08.821
244,0.31,-9.30,-1.45,2024-01-20 15:13:08.854
216,0.27,-9.38,-1.41,2024-01-20 15:13:08.887
194,0.16,-9.30,-1.29,2024-01-20 15:13:08.954
360,0.12,-9.38,-1.14,2024-01-20 15:13:08.987
424,0.20,-9.30,-1.37,2024-01-20 15:13:09.020
316,0.35,-9.30,-1.53,2024-01-20 15:13:09.087
335,0.20,-9.30,-1.45,2024-01-20 15:13:09.120
307,0.24,-9.38,-1.29,2024-01-20 15:13:09.154
295,0.27,-9.34,-1.37,2024-01-20 15:13:09.220
369,0.20,-9.34,-1.33,2024-01-20 15:13:09.253
640,0.24,-9.34,-1.29,2024-01-20 15:13:09.286
127,0.31,-9.34,-1.41,2024-01-20 15:13:09.321
321,0.20,-9.34,-1.37,2024-01-20 15:13:09.385
338,0.24,-9.30,-1.41,2024-01-20 15:13:09.420
399,0.27,-9.30,-1.33,2024-01-20 15:13:09.452
411,0.24,-9.34,-1.33,2024-01-20 15:13:09.519
337,0.24,-9.41,-1.37,2024-01-20 15:13:09.552
328,0.20,-9.38,-1.37,2024-01-20 15:13:09.586
303,0.24,-9.38,-1.41,2024-01-20 15:13:09.653
336,0.27,-9.34,-1.37,2024-01-20 15:13:09.686
390,0.24,-9.34,-1.37,2024-01-20 15:13:09.719
357,0.24,-9.38,-1.33,2024-01-20 15:13:09.785
312,0.24,-9.38,-1.33,2024-01-20 15:13:09.819
300,0.24,-9.30,-1.33,2024-01-20 15:13:09.852
324,0.27,-9.38,-1.29,2024-01-20 15:13:09.918
358,0.27,-9.34,-1.41,2024-01-20 15:13:09.952
354,0.20,-9.38,-1.37,2024-01-20 15:13:09.985
304,0.27,-9.30,-1.33,2024-01-20 15:13:10.018
520,0.20,-9.38,-1.41,2024-01-20 15:13:10.085
99,0.27,-9.30,-1.33,2024-01-20 15:13:10.118
339,0.16,-9.34,-1.41,2024-01-20 15:13:10.152
375,0.24,-9.30,-1.41,2024-01-20 15:13:10.218
366,0.24,-9.30,-1.37,2024-01-20 15:13:10.251
331,0.20,-9.34,-1.37,2024-01-20 15:13:10.285
281,0.27,-9.38,-1.37,2024-01-20 15:13:10.351
304,0.24,-9.30,-1.33,2024-01-20 15:13:10.385
369,0.24,-9.38,-1.33,2024-01-20 15:13:10.418
358,0.24,-9.34,-1.41,2024-01-20 15:13:10.484
310,0.24,-9.34,-1.41,2024-01-20 15:13:10.518
294,0.16,-9.34,-1.37,2024-01-20 15:13:10.551
282,0.20,-9.34,-1.33,2024-01-20 15:13:10.616
327,0.24,-9.30,-1.37,2024-01-20 15:13:10.650
384,0.24,-9.34,-1.33,2024-01-20 15:13:10.684
336,0.20,-9.34,-1.41,2024-01-20 15:13:10.717
295,0.24,-9.30,-1.33,2024-01-20 15:13:10.783
276,0.16,-9.34,-1.33,2024-01-20 15:13:10.817
588,0.24,-9.38,-1.41,2024-01-20 15:13:10.850
369,0.24,-9.38,-1.41,2024-01-20 15:13:10.917
378,0.24,-9.30,-1.37,2024-01-20 15:13:10.949
333,0.31,-9.38,-1.33,2024-01-20 15:13:10.984
321,0.24,-9.30,-1.37,2024-01-20 15:13:11.050
304,0.24,-9.34,-1.37,2024-01-20 15:13:11.083
340,0.24,-9.34,-1.37,2024-01-20 15:13:11.116
401,0.20,-9.38,-1.37,2024-01-20 15:13:11.183
346,0.27,-9.34,-1.33,2024-01-20 15:13:11.216
326,0.20,-9.30,-1.37,2024-01-20 15:13:11.250
285,0.27,-9.34,-1.26,2024-01-20 15:13:11.315
371,0.16,-9.30,-1.26,2024-01-20 15:13:11.349
397,0.27,-9.34,-1.37,2024-01-20 15:13:11.383
417,0.08,-9.18,-1.57,2024-01-20 15:13:11.416
340,0.35,-9.34,-1.26,2024-01-20 15:13:11.482
304,0.16,-9.34,-1.33,2024-01-20 15:13:11.516
305,0.24,-9.34,-1.49,2024-01-20 15:13:11.550
372,0.35,-9.30,-1.41,2024-01-20 15:13:11.615
41,0.16,-9.30,-1.29,2024-01-20 15:13:11.648
306,0.27,-9.34,-1.22,2024-01-20 15:13:11.682
282,0.20,-9.34,-1.49,2024-01-20 15:13:11.749
252,0.16,-9.34,-1.41,2024-01-20 15:13:11.782
286,0.27,-9.34,-1.29,2024-01-20 15:13:11.815
338,0.16,-9.38,-1.41,2024-01-20 15:13:11.882
349,0.27,-9.38,-1.33,2024-01-20 15:13:11.915
290,0.24,-9.34,-1.33,2024-01-20 15:13:11.948
290,0.20,-9.34,-1.37,2024-01-20 15:13:11.982
302,0.27,-9.34,-1.37,2024-01-20 15:13:12.048
336,0.24,-9.34,-1.41,2024-01-20 15:13:12.081
380,0.20,-9.34,-1.33,2024-01-20 15:13:12.115
334,0.27,-9.34,-1.33,2024-01-20 15:13:12.180
300,0.24,-9.34,-1.29,2024-01-20 15:13:12.215
277,0.24,-9.34,-1.37,2024-01-20 15:13:12.248
295,0.24,-9.38,-1.41,2024-01-20 15:13:12.314
355,0.24,-9.38,-1.37,2024-01-20 15:13:12.347
661,0.27,-9.34,-1.37,2024-01-20 15:13:12.380
284,0.24,-9.38,-1.41,2024-01-20 15:13:12.447
299,0.24,-9.34,-1.41,2024-01-20 15:13:12.480
293,0.24,-9.38,-1.29,2024-01-20 15:13:12.514
372,0.24,-9.34,-1.37,2024-01-20 15:13:12.580
398,0.24,-9.38,-1.33,2024-01-20 15:13:12.614
332,0.24,-9.34,-1.37,2024-01-20 15:13:12.647
308,0.24,-9.34,-1.37,2024-01-20 15:13:12.681
301,0.24,-9.34,-1.33,2024-01-20 15:13:12.747
327,0.20,-9.30,-1.41,2024-01-20 15:13:12.780
378,0.24,-9.38,-1.33,2024-01-20 15:13:12.814
366,0.24,-9.26,-1.37,2024-01-20 15:13:12.880
308,0.24,-9.38,-1.37,2024-01-20 15:13:12.913
337,0.24,-9.34,-1.33,2024-01-20 15:13:12.946
311,0.20,-9.38,-1.37,2024-01-20 15:13:13.013
350,0.20,-9.30,-1.37,2024-01-20 15:13:13.047
375,0.20,-9.34,-1.37,2024-01-20 15:13:13.080
660,0.27,-9.30,-1.45,2024-01-20 15:13:13.146
154,0.24,-9.38,-1.37,2024-01-20 15:13:13.179
271,0.20,-9.34,-1.33,2024-01-20 15:13:13.214
328,0.24,-9.34,-1.41,2024-01-20 15:13:13.278
391,0.24,-9.34,-1.37,2024-01-20 15:13:13.312
354,0.27,-9.34,-1.33,2024-01-20 15:13:13.346
288,0.24,-9.30,-1.37,2024-01-20 15:13:13.379
301,0.24,-9.34,-1.33,2024-01-20 15:13:13.445
297,0.20,-9.38,-1.33,2024-01-20 15:13:13.479
371,0.27,-9.38,-1.41,2024-01-20 15:13:13.512
374,0.20,-9.30,-1.37,2024-01-20 15:13:13.578
318,0.27,-9.34,-1.37,2024-01-20 15:13:13.612
282,0.20,-9.34,-1.37,2024-01-20 15:13:13.645
338,0.16,-9.34,-1.37,2024-01-20 15:13:13.712
358,0.27,-9.38,-1.26,2024-01-20 15:13:13.745
431,0.12,-9.34,-1.37,2024-01-20 15:13:13.778
308,0.20,-9.34,-1.37,2024-01-20 15:13:13.845
98,0.31,-9.22,-1.49,2024-01-20 15:13:13.878
272,0.24,-9.30,-1.49,2024-01-20 15:13:13.912
271,0.27,-9.38,-1.29,2024-01-20 15:13:13.978
383,0.16,-9.38,-1.37,2024-01-20 15:13:14.011
442,0.27,-9.38,-1.49,2024-01-20 15:13:14.045
349,0.24,-9.34,-1.37,2024-01-20 15:13:14.077
343,0.20,-9.34,-1.37,2024-01-20 15:13:14.144
301,0.24,-9.34,-1.37,2024-01-20 15:13:14.177
404,0.16,-9.30,-1.45,2024-01-20 15:13:14.211
545,0.24,-9.34,-1.29,2024-01-20 15:13:14.278
394,0.20,-9.38,-1.29,2024-01-20 15:13:14.310
327,0.20,-9.41,-1.41,2024-01-20 15:13:14.344
231,0.35,-9.38,-1.53,2024-01-20 15:13:14.410
309,0.20,-9.30,-1.37,2024-01-20 15:13:14.444
411,0.16,-9.34,-1.29,2024-01-20 15:13:14.477
369,0.24,-9.34,-1.37,2024-01-20 15:13:14.544
314,0.24,-9.30,-1.41,2024-01-20 15:13:14.577
215,0.20,-9.38,-1.29,2024-01-20 15:13:14.611
662,0.20,-9.34,-1.33,2024-01-20 15:13:14.676
162,0.24,-9.30,-1.41,2024-01-20 15:13:14.710
273,0.20,-9.30,-1.37,2024-01-20 15:13:14.743
305,0.24,-9.38,-1.37,2024-01-20 15:13:14.777
316,0.27,-9.34,-1.37,2024-01-20 15:13:14.843
290,0.20,-9.34,-1.41,2024-01-20 15:13:14.876
287,0.24,-9.30,-1.37,2024-01-20 15:13:14.909
389,0.24,-9.38,-1.41,2024-01-20 15:13:14.976
327,0.24,-9.34,-1.41,2024-01-20 15:13:15.009
243,0.24,-9.34,-1.33,2024-01-20 15:13:15.043
244,0.20,-9.30,-1.41,2024-01-20 15:13:15.109
282,0.20,-9.34,-1.37,2024-01-20 15:13:15.142
330,0.20,-9.30,-1.33,2024-01-20 15:13:15.175
379,0.27,-9.38,-1.33,2024-01-20 15:13:15.242
328,0.27,-9.34,-1.37,2024-01-20 15:13:15.276
305,0.20,-9.30,-1.37,2024-01-20 15:13:15.309
321,0.24,-9.38,-1.37,2024-01-20 15:13:15.375
332,0.24,-9.38,-1.37,2024-01-20 15:13:15.408
414,0.24,-9.34,-1.33,2024-01-20 15:13:15.442
432,0.24,-9.34,-1.37,2024-01-20 15:13:15.475
288,0.24,-9.30,-1.33,2024-01-20 15:13:15.542
327,0.24,-9.38,-1.33,2024-01-20 15:13:15.575
610,0.20,-9.34,-1.29,2024-01-20 15:13:15.609
213,0.24,-9.34,-1.37,2024-01-20 15:13:15.674
432,0.27,-9.34,-1.41,2024-01-20 15:13:15.708
379,0.24,-9.34,-1.33,2024-01-20 15:13:15.741
275,0.20,-9.38,-1.41,2024-01-20 15:13:15.808
275,0.20,-9.38,-1.29,2024-01-20 15:13:15.841
303,0.24,-9.30,-1.37,2024-01-20 15:13:15.875
316,0.20,-9.30,-1.33,2024-01-20 15:13:15.941
297,0.27,-9.34,-1.33,2024-01-20 15:13:15.974
231,0.20,-9.34,-1.37,2024-01-20 15:13:16.007
242,0.20,-9.34,-1.37,2024-01-20 15:13:16.074
328,0.20,-9.30,-1.37,2024-01-20 15:13:16.108
282,0.27,-9.34,-1.41,2024-01-20 15:13:16.140
311,0.24,-9.34,-1.41,2024-01-20 15:13:16.174
265,0.24,-9.38,-1.37,2024-01-20 15:13:16.241
234,0.24,-9.34,-1.37,2024-01-20 15:13:16.274
323,0.24,-9.30,-1.29,2024-01-20 15:13:16.308
342,0.24,-9.34,-1.37,2024-01-20 15:13:16.373
408,0.20,-9.38,-1.37,2024-01-20 15:13:16.406
308,0.20,-9.38,-1.33,2024-01-20 15:13:16.440
246,0.24,-9.30,-1.41,2024-01-20 15:13:16.506
325,0.24,-9.30,-1.37,2024-01-20 15:13:16.539
344,0.24,-9.30,-1.37,2024-01-20 15:13:16.573
428,0.20,-9.38,-1.33,2024-01-20 15:13:16.640
403,0.24,-9.34,-1.33,2024-01-20 15:13:16.673
634,0.20,-9.30,-1.37,2024-01-20 15:13:16.707
349,0.24,-9.30,-1.33,2024-01-20 15:13:16.772
402,0.20,-9.30,-1.37,2024-01-20 15:13:16.806
418,0.24,-9.34,-1.37,2024-01-20 15:13:16.840
454,0.24,-9.34,-1.41,2024-01-20 15:13:16.873
371,0.27,-9.34,-1.29,2024-01-20 15:13:16.939
313,0.24,-9.34,-1.37,2024-01-20 15:13:16.973
368,0.24,-9.34,-1.37,2024-01-20 15:13:17.006
365,0.16,-9.34,-1.33,2024-01-20 15:13:17.072
417,0.20,-9.34,-1.37,2024-01-20 15:13:17.106
387,0.24,-9.34,-1.33,2024-01-20 15:13:17.139
331,0.27,-9.34,-1.37,2024-01-20 15:13:17.205
295,0.24,-9.34,-1.37,2024-01-20 15:13:17.239
347,0.20,-9.34,-1.33,2024-01-20 15:13:17.272
365,0.24,-9.34,-1.41,2024-01-20 15:13:17.338
380,0.24,-9.34,-1.37,2024-01-20 15:13:17.372
295,0.24,-9.30,-1.33,2024-01-20 15:13:17.405
293,0.24,-9.30,-1.37,2024-01-20 15:13:17.471
309,0.24,-9.34,-1.33,2024-01-20 15:13:17.505
347,0.24,-9.34,-1.41,2024-01-20 15:13:17.538
365,0.27,-9.34,-1.41,2024-01-20 15:13:17.572
330,0.20,-9.34,-1.37,2024-01-20 15:13:17.638
650,0.27,-9.38,-1.37,2024-01-20 15:13:17.671
173,0.20,-9.30,-1.41,2024-01-20 15:13:17.705
333,0.24,-9.30,-1.37,2024-01-20 15:13:17.770
357,0.24,-9.38,-1.37,2024-01-20 15:13:17.804
380,0.24,-9.30,-1.41,2024-01-20 15:13:17.838
322,0.24,-9.34,-1.37,2024-01-20 15:13:17.904
289,0.27,-9.26,-1.37,2024-01-20 15:13:17.937
321,0.27,-9.34,-1.37,2024-01-20 15:13:17.971
326,0.24,-9.34,-1.37,2024-01-20 15:13:18.037
362,0.24,-9.30,-1.33,2024-01-20 15:13:18.070
317,0.27,-9.34,-1.41,2024-01-20 15:13:18.104
270,0.24,-9.34,-1.33,2024-01-20 15:13:18.170
279,0.24,-9.34,-1.37,2024-01-20 15:13:18.204
323,0.24,-9.38,-1.37,2024-01-20 15:13:18.237
365,0.24,-9.30,-1.33,2024-01-20 15:13:18.270
348,0.20,-9.26,-1.37,2024-01-20 15:13:18.337
290,0.24,-9.30,-1.37,2024-01-20 15:13:18.370
282,0.27,-9.34,-1.41,2024-01-20 15:13:18.403
364,0.24,-9.34,-1.41,2024-01-20 15:13:18.469
341,0.24,-9.38,-1.41,2024-01-20 15:13:18.503
371,0.24,-9.30,-1.41,2024-01-20 15:13:18.536
316,0.24,-9.30,-1.37,2024-01-20 15:13:18.603
323,0.24,-9.30,-1.37,2024-01-20 15:13:18.636
12,0.20,-9.34,-1.37,2024-01-20 15:13:18.670
318,0.24,-9.30,-1.37,2024-01-20 15:13:18.735
390,0.24,-9.38,-1.33,2024-01-20 15:13:18.769
391,0.20,-9.34,-1.37,2024-01-20 15:13:18.803
336,0.24,-9.26,-1.37,2024-01-20 15:13:18.836
304,0.20,-9.34,-1.41,2024-01-20 15:13:18.903
325,0.24,-9.30,-1.33,2024-01-20 15:13:18.935
352,0.24,-9.30,-1.41,2024-01-20 15:13:18.968
373,0.24,-9.30,-1.37,2024-01-20 15:13:19.035
325,0.24,-9.34,-1.37,2024-01-20 15:13:19.069
282,0.24,-9.38,-1.41,2024-01-20 15:13:19.102
298,0.24,-9.34,-1.37,2024-01-20 15:13:19.168
319,0.27,-9.34,-1.37,2024-01-20 15:13:19.202
362,0.24,-9.34,-1.41,2024-01-20 15:13:19.235
357,0.20,-9.34,-1.33,2024-01-20 15:13:19.302
315,0.24,-9.30,-1.33,2024-01-20 15:13:19.335
292,0.24,-9.34,-1.37,2024-01-20 15:13:19.368
322,0.20,-9.38,-1.37,2024-01-20 15:13:19.434
359,0.27,-9.38,-1.41,2024-01-20 15:13:19.468
377,0.24,-9.34,-1.37,2024-01-20 15:13:19.501
314,0.24,-9.34,-1.37,2024-01-20 15:13:19.535
269,0.20,-9.34,-1.33,2024-01-20 15:13:19.601
661,0.24,-9.34,-1.37,2024-01-20 15:13:19.634
301,0.20,-9.38,-1.41,2024-01-20 15:13:19.667
367,0.24,-9.38,-1.37,2024-01-20 15:13:19.734
359,0.24,-9.30,-1.37,2024-01-20 15:13:19.767
307,0.20,-9.34,-1.37,2024-01-20 15:13:19.801
313,0.20,-9.34,-1.37,2024-01-20 15:13:19.867
323,0.20,-9.38,-1.41,2024-01-20 15:13:19.900
355,0.24,-9.30,-1.37,2024-01-20 15:13:19.934
380,0.20,-9.34,-1.37,2024-01-20 15:13:20.000
307,0.20,-9.30,-1.37,2024-01-20 15:13:20.034
284,0.24,-9.34,-1.37,2024-01-20 15:13:20.067
293,0.20,-9.34,-1.41,2024-01-20 15:13:20.134
321,0.24,-9.34,-1.41,2024-01-20 15:13:20.166
365,0.24,-9.34,-1.37,2024-01-20 15:13:20.200
333,0.20,-9.38,-1.37,2024-01-20 15:13:20.233
262,0.24,-9.34,-1.37,2024-01-20 15:13:20.299
294,0.27,-9.34,-1.41,2024-01-20 15:13:20.333
301,0.24,-9.34,-1.45,2024-01-20 15:13:20.366
338,0.27,-9.30,-1.37,2024-01-20 15:13:20.432
396,0.20,-9.34,-1.33,2024-01-20 15:13:20.466
300,0.24,-9.41,-1.37,2024-01-20 15:13:20.500
266,0.24,-9.30,-1.41,2024-01-20 15:13:20.565
300,0.24,-9.38,-1.41,2024-01-20 15:13:20.599
559,0.24,-9.38,-1.33,2024-01-20 15:13:20.633
185,0.24,-9.34,-1.37,2024-01-20 15:13:20.699
331,0.20,-9.34,-1.37,2024-01-20 15:13:20.732
296,0.20,-9.30,-1.41,2024-01-20 15:13:20.766
311,0.20,-9.30,-1.33,2024-01-20 15:13:20.832
352,0.24,-9.41,-1.33,2024-01-20 15:13:20.865
358,0.24,-9.34,-1.37,2024-01-20 15:13:20.898
385,0.24,-9.34,-1.33,2024-01-20 15:13:20.932
290,0.27,-9.38,-1.33,2024-01-20 15:13:20.998
280,0.24,-9.38,-1.41,2024-01-20 15:13:21.031
316,0.20,-9.38,-1.37,2024-01-20 15:13:21.065
355,0.20,-9.38,-1.33,2024-01-20 15:13:21.131
379,0.20,-9.38,-1.37,2024-01-20 15:13:21.164
337,0.20,-9.34,-1.41,2024-01-20 15:13:21.198
281,0.24,-9.34,-1.33,2024-01-20 15:13:21.264
304,0.24,-9.38,-1.37,2024-01-20 15:13:21.298
334,0.16,-9.30,-1.41,2024-01-20 15:13:21.331
381,0.24,-9.34,-1.37,2024-01-20 15:13:21.398
355,0.27,-9.38,-1.33,2024-01-20 15:13:21.431
316,0.24,-9.26,-1.37,2024-01-20 15:13:21.465
299,0.24,-9.34,-1.37,2024-01-20 15:13:21.531
310,0.20,-9.34,-1.33,2024-01-20 15:13:21.564
346,0.20,-9.30,-1.37,2024-01-20 15:13:21.598
660,0.20,-9.34,-1.37,2024-01-20 15:13:21.631
221,0.24,-9.30,-1.37,2024-01-20 15:13:21.696
320,0.24,-9.34,-1.37,2024-01-20 15:13:21.730
325,0.27,-9.34,-1.37,2024-01-20 15:13:21.763
352,0.27,-9.34,-1.37,2024-01-20 15:13:21.830
417,0.27,-9.38,-1.33,2024-01-20 15:13:21.864
367,0.27,-9.26,-1.37,2024-01-20 15:13:21.897
309,0.24,-9.38,-1.37,2024-01-20 15:13:21.963
301,0.20,-9.34,-1.33,2024-01-20 15:13:21.996
336,0.24,-9.38,-1.37,2024-01-20 15:13:22.029
374,0.24,-9.30,-1.33,2024-01-20 15:13:22.096
385,0.20,-9.30,-1.41,2024-01-20 15:13:22.129
302,0.27,-9.34,-1.37,2024-01-20 15:13:22.163
283,0.27,-9.30,-1.37,2024-01-20 15:13:22.229
293,0.20,-9.34,-1.33,2024-01-20 15:13:22.263
323,0.31,-9.41,-1.45,2024-01-20 15:13:22.296
359,0.27,-9.30,-1.37,2024-01-20 15:13:22.330
341,0.24,-9.34,-1.37,2024-01-20 15:13:22.396
317,0.20,-9.34,-1.41,2024-01-20 15:13:22.429
288,0.20,-9.30,-1.33,2024-01-20 15:13:22.463
328,0.24,-9.34,-1.33,2024-01-20 15:13:22.528
352,0.24,-9.34,-1.41,2024-01-20 15:13:22.563
463,0.20,-9.30,-1.37,2024-01-20 15:13:22.595
7,0.24,-9.30,-1.45,2024-01-20 15:13:22.662
288,0.24,-9.34,-1.37,2024-01-20 15:13:22.695
315,0.24,-9.34,-1.37,2024-01-20 15:13:22.729
357,0.24,-9.38,-1.45,2024-01-20 15:13:22.795
367,0.27,-9.38,-1.41,2024-01-20 15:13:22.829
388,0.24,-9.34,-1.37,2024-01-20 15:13:22.862
323,0.24,-9.34,-1.33,2024-01-20 15:13:22.895
271,0.27,-9.38,-1.37,2024-01-20 15:13:22.962
296,0.24,-9.34,-1.37,2024-01-20 15:13:22.994
345,0.20,-9.34,-1.41,2024-01-20 15:13:23.028
370,0.24,-9.38,-1.37,2024-01-20 15:13:23.095
344,0.24,-9.30,-1.37,2024-01-20 15:13:23.128
276,0.27,-9.38,-1.45,2024-01-20 15:13:23.162
290,0.24,-9.34,-1.33,2024-01-20 15:13:23.227
321,0.20,-9.34,-1.41,2024-01-20 15:13:23.261
347,0.24,-9.38,-1.37,2024-01-20 15:13:23.295
360,0.24,-9.38,-1.37,2024-01-20 15:13:23.360
303,0.24,-9.30,-1.33,2024-01-20 15:13:23.394
279,0.24,-9.26,-1.33,2024-01-20 15:13:23.427
301,0.24,-9.30,-1.37,2024-01-20 15:13:23.494
312,0.24,-9.34,-1.41,2024-01-20 15:13:23.527
377,0.24,-9.38,-1.37,2024-01-20 15:13:23.561
325,0.20,-9.30,-1.41,2024-01-20 15:13:23.594
267,0.20,-9.26,-1.33,2024-01-20 15:13:23.660
311,0.24,-9.34,-1.37,2024-01-20 15:13:23.693
343,0.20,-9.34,-1.37,2024-01-20 15:13:23.727
361,0.24,-9.34,-1.37,2024-01-20 15:13:23.793
385,0.27,-9.34,-1.33,2024-01-20 15:13:23.827
301,0.24,-9.30,-1.29,2024-01-20 15:13:23.860
276,0.27,-9.34,-1.33,2024-01-20 15:13:23.926
312,0.24,-9.34,-1.37,2024-01-20 15:13:23.959
323,0.20,-9.34,-1.33,2024-01-20 15:13:23.993
375,0.31,-9.38,-1.37,2024-01-20 15:13:24.059
324,0.24,-9.34,-1.37,2024-01-20 15:13:24.093
262,0.24,-9.34,-1.41,2024-01-20 15:13:24.126
302,0.24,-9.30,-1.37,2024-01-20 15:13:24.193
325,0.27,-9.38,-1.37,2024-01-20 15:13:24.226
362,0.24,-9.38,-1.45,2024-01-20 15:13:24.259
400,0.20,-9.38,-1.41,2024-01-20 15:13:24.293
273,0.20,-9.34,-1.33,2024-01-20 15:13:24.359
281,0.27,-9.30,-1.37,2024-01-20 15:13:24.393
327,0.24,-9.30,-1.37,2024-01-20 15:13:24.426
598,0.24,-9.34,-1.45,2024-01-20 15:13:24.492
211,0.20,-9.34,-1.41,2024-01-20 15:13:24.525
326,0.24,-9.30,-1.45,2024-01-20 15:13:24.558
292,0.24,-9.30,-1.33,2024-01-20 15:13:24.625
326,0.24,-9.34,-1.37,2024-01-20 15:13:24.659
362,0.24,-9.34,-1.37,2024-01-20 15:13:24.692
379,0.20,-9.26,-1.37,2024-01-20 15:13:24.758
373,0.24,-9.38,-1.33,2024-01-20 15:13:24.792
298,0.20,-9.34,-1.37,2024-01-20 15:13:24.825
290,0.24,-9.38,-1.37,2024-01-20 15:13:24.891
328,0.24,-9.30,-1.41,2024-01-20 15:13:24.925
350,0.20,-9.30,-1.33,2024-01-20 15:13:24.958
380,0.24,-9.38,-1.33,2024-01-20 15:13:24.991
306,0.24,-9.38,-1.41,2024-01-20 15:13:25.057
283,0.27,-9.34,-1.37,2024-01-20 15:13:25.090
322,0.20,-9.34,-1.41,2024-01-20 15:13:25.124
350,0.20,-9.34,-1.41,2024-01-20 15:13:25.190
388,0.24,-9.30,-1.37,2024-01-20 15:13:25.224
365,0.24,-9.34,-1.37,2024-01-20 15:13:25.258
301,0.20,-9.34,-1.33,2024-01-20 15:13:25.324
298,0.24,-9.34,-1.37,2024-01-20 15:13:25.357
336,0.27,-9.34,-1.33,2024-01-20 15:13:25.390
386,0.24,-9.34,-1.33,2024-01-20 15:13:25.457
660,0.20,-9.34,-1.37,2024-01-20 15:13:25.491
212,0.27,-9.34,-1.33,2024-01-20 15:13:25.523
295,0.24,-9.34,-1.37,2024-01-20 15:13:25.590
328,0.24,-9.38,-1.37,2024-01-20 15:13:25.623
371,0.24,-9.34,-1.41,2024-01-20 15:13:25.657
406,0.24,-9.34,-1.41,2024-01-20 15:13:25.690
333,0.24,-9.30,-1.37,2024-01-20 15:13:25.757
298,0.20,-9.34,-1.33,2024-01-20 15:13:25.789
303,0.24,-9.34,-1.37,2024-01-20 15:13:25.823
325,0.20,-9.34,-1.37,2024-01-20 15:13:25.889
364,0.27,-9.34,-1.41,2024-01-20 15:13:25.923
375,0.24,-9.34,-1.37,2024-01-20 15:13:25.957
293,0.24,-9.34,-1.37,2024-01-20 15:13:26.022
286,0.20,-9.30,-1.37,2024-01-20 15:13:26.056
320,0.27,-9.38,-1.33,2024-01-20 15:13:26.089
361,0.20,-9.30,-1.41,2024-01-20 15:13:26.156
412,0.24,-9.30,-1.33,2024-01-20 15:13:26.189
352,0.24,-9.30,-1.41,2024-01-20 15:13:26.222
284,0.20,-9.34,-1.41,2024-01-20 15:13:26.288
310,0.20,-9.30,-1.37,2024-01-20 15:13:26.322
328,0.24,-9.30,-1.33,2024-01-20 15:13:26.356
338,0.24,-9.34,-1.37,2024-01-20 15:13:26.389
390,0.20,-9.38,-1.37,2024-01-20 15:13:26.455
317,0.24,-9.34,-1.41,2024-01-20 15:13:26.488
304,0.20,-9.34,-1.37,2024-01-20 15:13:26.522
358,0.24,-9.34,-1.37,2024-01-20 15:13:26.588
373,0.24,-9.34,-1.33,2024-01-20 15:13:26.621
403,0.24,-9.34,-1.41,2024-01-20 15:13:26.656
346,0.24,-9.30,-1.41,2024-01-20 15:13:26.722
272,0.24,-9.34,-1.37,2024-01-20 15:13:26.754
301,0.27,-9.34,-1.33,2024-01-20 15:13:26.788
339,0.20,-9.34,-1.29,2024-01-20 15:13:26.854
378,0.24,-9.30,-1.37,2024-01-20 15:13:26.888
348,0.24,-9.38,-1.37,2024-01-20 15:13:26.922
293,0.27,-9.38,-1.37,2024-01-20 15:13:26.987
281,0.24,-9.38,-1.33,2024-01-20 15:13:27.021
320,0.24,-9.30,-1.37,2024-01-20 15:13:27.054
382,0.24,-9.38,-1.37,2024-01-20 15:13:27.088
383,0.24,-9.30,-1.33,2024-01-20 15:13:27.153
318,0.20,-9.34,-1.45,2024-01-20 15:13:27.187
269,0.24,-9.38,-1.37,2024-01-20 15:13:27.221
333,0.24,-9.30,-1.41,2024-01-20 15:13:27.287
56,0.24,-9.34,-1.37,2024-01-20 15:13:27.320
352,0.24,-9.34,-1.37,2024-01-20 15:13:27.354
372,0.24,-9.38,-1.37,2024-01-20 15:13:27.420
306,0.24,-9.30,-1.37,2024-01-20 15:13:27.453
302,0.24,-9.34,-1.37,2024-01-20 15:13:27.487
325,0.24,-9.34,-1.41,2024-01-20 15:13:27.553
353,0.24,-9.34,-1.45,2024-01-20 15:13:27.587
380,0.24,-9.38,-1.37,2024-01-20 15:13:27.620
323,0.24,-9.30,-1.29,2024-01-20 15:13:27.686
287,0.20,-9.34,-1.37,2024-01-20 15:13:27.720
296,0.20,-9.38,-1.33,2024-01-20 15:13:27.753
330,0.27,-9.30,-1.37,2024-01-20 15:13:27.787
357,0.24,-9.34,-1.37,2024-01-20 15:13:27.852
367,0.20,-9.34,-1.37,2024-01-20 15:13:27.886
286,0.24,-9.34,-1.41,2024-01-20 15:13:27.919
281,0.24,-9.30,-1.41,2024-01-20 15:13:27.986
303,0.27,-9.34,-1.33,2024-01-20 15:13:28.019
368,0.20,-9.34,-1.37,2024-01-20 15:13:28.052
386,0.27,-9.38,-1.37,2024-01-20 15:13:28.119
311,0.24,-9.34,-1.37,2024-01-20 15:13:28.152
272,0.24,-9.34,-1.29,2024-01-20 15:13:28.185
299,0.27,-9.06,-1.41,2024-01-20 15:13:28.252
164,0.27,-9.41,-1.45,2024-01-20 15:13:28.285
372,0.24,-9.26,-1.37,2024-01-20 15:13:28.319
371,0.20,-9.34,-1.37,2024-01-20 15:13:28.385
301,0.24,-9.38,-1.45,2024-01-20 15:13:28.418
305,0.24,-9.38,-1.37,2024-01-20 15:13:28.451
344,0.24,-9.34,-1.37,2024-01-20 15:13:28.485
352,0.24,-9.34,-1.37,2024-01-20 15:13:28.551
386,0.24,-9.30,-1.41,2024-01-20 15:13:28.585
315,0.24,-9.34,-1.37,2024-01-20 15:13:28.618
279,0.20,-9.30,-1.37,2024-01-20 15:13:28.684
299,0.24,-9.34,-1.41,2024-01-20 15:13:28.718
334,0.20,-9.34,-1.37,2024-01-20 15:13:28.751
382,0.24,-9.34,-1.37,2024-01-20 15:13:28.817
343,0.24,-9.38,-1.37,2024-01-20 15:13:28.851
267,0.24,-9.30,-1.37,2024-01-20 15:13:28.884
250,0.24,-9.34,-1.37,2024-01-20 15:13:28.950
313,0.20,-9.30,-1.41,2024-01-20 15:13:28.983
364,0.27,-9.34,-1.37,2024-01-20 15:13:29.017
389,0.24,-9.38,-1.37,2024-01-20 15:13:29.083
331,0.20,-9.30,-1.37,2024-01-20 15:13:29.117
285,0.24,-9.26,-1.37,2024-01-20 15:13:29.151
307,0.20,-9.26,-1.37,2024-01-20 15:13:29.183
344,0.20,-9.34,-1.37,2024-01-20 15:13:29.250
661,0.24,-9.38,-1.41,2024-01-20 15:13:29.283
287,0.24,-9.34,-1.33,2024-01-20 15:13:29.317
292,0.20,-9.30,-1.37,2024-01-20 15:13:29.383
306,0.24,-9.30,-1.37,2024-01-20 15:13:29.417
338,0.27,-9.30,-1.41,2024-01-20 15:13:29.450
385,0.27,-9.34,-1.33,2024-01-20 15:13:29.516
374,0.27,-9.34,-1.37,2024-01-20 15:13:29.549
319,0.20,-9.34,-1.37,2024-01-20 15:13:29.583
276,0.24,-9.34,-1.33,2024-01-20 15:13:29.648
268,0.24,-9.34,-1.37,2024-01-20 15:13:29.682
369,0.27,-9.34,-1.41,2024-01-20 15:13:29.716
368,0.24,-9.34,-1.37,2024-01-20 15:13:29.782
366,0.24,-9.34,-1.41,2024-01-20 15:13:29.816
309,0.16,-9.30,-1.37,2024-01-20 15:13:29.848
295,0.24,-9.34,-1.33,2024-01-20 15:13:29.882
332,0.24,-9.38,-1.33,2024-01-20 15:13:29.949
369,0.24,-9.38,-1.37,2024-01-20 15:13:29.982
388,0.24,-9.34,-1.45,2024-01-20 15:13:30.016
302,0.24,-9.41,-1.33,2024-01-20 15:13:30.081
270,0.24,-9.34,-1.41,2024-01-20 15:13:30.115
335,0.20,-9.30,-1.37,2024-01-20 15:13:30.149
342,0.20,-9.30,-1.37,2024-01-20 15:13:30.215
366,0.24,-9.38,-1.33,2024-01-20 15:13:30.248
330,0.20,-9.30,-1.45,2024-01-20 15:13:30.281
258,0.20,-9.30,-1.37,2024-01-20 15:13:30.347
195,0.24,-9.34,-1.37,2024-01-20 15:13:30.381
311,0.27,-9.38,-1.37,2024-01-20 15:13:30.415
376,0.20,-9.38,-1.33,2024-01-20 15:13:30.481
380,0.24,-9.26,-1.37,2024-01-20 15:13:30.514
312,0.24,-9.38,-1.37,2024-01-20 15:13:30.548
282,0.24,-9.34,-1.33,2024-01-20 15:13:30.581
312,0.24,-9.30,-1.33,2024-01-20 15:13:30.648
347,0.27,-9.34,-1.33,2024-01-20 15:13:30.681
369,0.24,-9.38,-1.41,2024-01-20 15:13:30.714
336,0.27,-9.34,-1.37,2024-01-20 15:13:30.780
284,0.24,-9.34,-1.41,2024-01-20 15:13:30.814
303,0.24,-9.38,-1.41,2024-01-20 15:13:30.848
315,0.24,-9.34,-1.37,2024-01-20 15:13:30.913
366,0.20,-9.34,-1.29,2024-01-20 15:13:30.947
363,0.20,-9.30,-1.41,2024-01-20 15:13:30.980
291,0.20,-9.34,-1.37,2024-01-20 15:13:31.047
282,0.24,-9.30,-1.33,2024-01-20 15:13:31.080
320,0.24,-9.34,-1.37,2024-01-20 15:13:31.113
346,0.24,-9.34,-1.33,2024-01-20 15:13:31.180
393,0.24,-9.34,-1.37,2024-01-20 15:13:31.213
337,0.24,-9.34,-1.33,2024-01-20 15:13:31.246
263,0.27,-9.34,-1.37,2024-01-20 15:13:31.280
293,0.24,-9.34,-1.33,2024-01-20 15:13:31.347
339,0.24,-9.30,-1.37,2024-01-20 15:13:31.380
661,0.27,-9.34,-1.33,2024-01-20 15:13:31.412
345,0.24,-9.34,-1.37,2024-01-20 15:13:31.479
306,0.24,-9.38,-1.41,2024-01-20 15:13:31.512
323,0.24,-9.38,-1.41,2024-01-20 15:13:31.546
357,0.24,-9.30,-1.29,2024-01-20 15:13:31.612
385,0.27,-9.38,-1.37,2024-01-20 15:13:31.646
364,0.24,-9.38,-1.37,2024-01-20 15:13:31.679
333,0.24,-9.34,-1.41,2024-01-20 15:13:31.745
277,0.24,-9.34,-1.37,2024-01-20 15:13:31.779
309,0.24,-9.30,-1.33,2024-01-20 15:13:31.812
325,0.27,-9.38,-1.37,2024-01-20 15:13:31.879
385,0.24,-9.30,-1.37,2024-01-20 15:13:31.911
346,0.20,-9.34,-1.41,2024-01-20 15:13:31.945
281,0.24,-9.34,-1.37,2024-01-20 15:13:31.979
289,0.24,-9.34,-1.33,2024-01-20 15:13:32.044
315,0.24,-9.38,-1.37,2024-01-20 15:13:32.078
363,0.20,-9.34,-1.37,2024-01-20 15:13:32.111
368,0.24,-9.34,-1.33,2024-01-20 15:13:32.178
299,0.27,-9.38,-1.37,2024-01-20 15:13:32.212
292,0.27,-9.34,-1.29,2024-01-20 15:13:32.245
306,0.24,-9.34,-1.37,2024-01-20 15:13:32.311
331,0.24,-9.38,-1.33,2024-01-20 15:13:32.345
376,0.16,-9.34,-1.41,2024-01-20 15:13:32.378
658,0.24,-9.34,-1.37,2024-01-20 15:13:32.444
160,0.27,-9.41,-1.37,2024-01-20 15:13:32.477
303,0.24,-9.34,-1.41,2024-01-20 15:13:32.511
345,0.24,-9.38,-1.41,2024-01-20 15:13:32.577
387,0.20,-9.34,-1.41,2024-01-20 15:13:32.610
415,0.24,-9.30,-1.37,2024-01-20 15:13:32.644
301,0.24,-9.34,-1.33,2024-01-20 15:13:32.677
284,0.24,-9.34,-1.41,2024-01-20 15:13:32.744
311,0.24,-9.34,-1.33,2024-01-20 15:13:32.777
338,0.24,-9.34,-1.41,2024-01-20 15:13:32.811
386,0.20,-9.34,-1.33,2024-01-20 15:13:32.876
342,0.24,-9.30,-1.37,2024-01-20 15:13:32.910
269,0.27,-9.34,-1.33,2024-01-20 15:13:32.943
280,0.27,-9.34,-1.33,2024-01-20 15:13:33.009
321,0.24,-9.34,-1.37,2024-01-20 15:13:33.043
366,0.27,-9.34,-1.37,2024-01-20 15:13:33.077
357,0.24,-9.38,-1.37,2024-01-20 15:13:33.143
311,0.24,-9.34,-1.33,2024-01-20 15:13:33.177
281,0.24,-9.38,-1.33,2024-01-20 15:13:33.209
333,0.20,-9.34,-1.41,2024-01-20 15:13:33.276
340,0.27,-9.34,-1.37,2024-01-20 15:13:33.309
382,0.24,-9.34,-1.41,2024-01-20 15:13:33.342
335,0.20,-9.30,-1.37,2024-01-20 15:13:33.376
661,0.24,-9.34,-1.37,2024-01-20 15:13:33.443
275,0.20,-9.38,-1.37,2024-01-20 15:13:33.475
341,0.20,-9.30,-1.37,2024-01-20 15:13:33.510
390,0.20,-9.34,-1.45,2024-01-20 15:13:33.575
386,0.24,-9.34,-1.41,2024-01-20 15:13:33.609
312,0.24,-9.34,-1.41,2024-01-20 15:13:33.643
268,0.24,-9.34,-1.33,2024-01-20 15:13:33.709
317,0.27,-9.30,-1.41,2024-01-20 15:13:33.741
332,0.24,-9.38,-1.33,2024-01-20 15:13:33.775
377,0.27,-9.34,-1.37,2024-01-20 15:13:33.842
316,0.24,-9.34,-1.37,2024-01-20 15:13:33.875
282,0.24,-9.34,-1.37,2024-01-20 15:13:33.908
281,0.24,-9.34,-1.33,2024-01-20 15:13:33.975
320,0.24,-9.38,-1.37,2024-01-20 15:13:34.008
368,0.24,-9.34,-1.41,2024-01-20 15:13:34.041
356,0.24,-9.30,-1.37,2024-01-20 15:13:34.075
285,0.24,-9.34,-1.37,2024-01-20 15:13:34.141
286,0.24,-9.34,-1.41,2024-01-20 15:13:34.175
334,0.24,-9.34,-1.37,2024-01-20 15:13:34.208
361,0.24,-9.30,-1.33,2024-01-20 15:13:34.274
367,0.24,-9.30,-1.37,2024-01-20 15:13:34.308
329,0.24,-9.34,-1.41,2024-01-20 15:13:34.341
254,0.27,-9.38,-1.33,2024-01-20 15:13:34.407
333,0.24,-9.30,-1.37,2024-01-20 15:13:34.441
329,0.27,-9.34,-1.41,2024-01-20 15:13:34.475
383,0.24,-9.34,-1.33,2024-01-20 15:13:34.540
358,0.24,-9.34,-1.33,2024-01-20 15:13:34.573
304,0.20,-9.34,-1.41,2024-01-20 15:13:34.607
297,0.24,-9.34,-1.37,2024-01-20 15:13:34.674
318,0.27,-9.38,-1.37,2024-01-20 15:13:34.707
348,0.24,-9.30,-1.41,2024-01-20 15:13:34.740
367,0.24,-9.34,-1.33,2024-01-20 15:13:34.774
303,0.24,-9.34,-1.37,2024-01-20 15:13:34.840
272,0.24,-9.34,-1.37,2024-01-20 15:13:34.873
289,0.20,-9.34,-1.41,2024-01-20 15:13:34.906
319,0.24,-9.34,-1.37,2024-01-20 15:13:34.973
366,0.24,-9.30,-1.41,2024-01-20 15:13:35.006
320,0.24,-9.34,-1.41,2024-01-20 15:13:35.040
263,0.27,-9.38,-1.41,2024-01-20 15:13:35.106
285,0.24,-9.34,-1.33,2024-01-20 15:13:35.139
314,0.27,-9.38,-1.41,2024-01-20 15:13:35.173
360,0.24,-9.34,-1.37,2024-01-20 15:13:35.239
317,0.24,-9.34,-1.37,2024-01-20 15:13:35.273
165,0.24,-9.34,-1.37,2024-01-20 15:13:35.306
110,0.24,-9.30,-1.37,2024-01-20 15:13:35.372
204,0.20,-9.30,-1.41,2024-01-20 15:13:35.405
214,0.24,-9.30,-1.33,2024-01-20 15:13:35.439
244,0.27,-9.34,-1.37,2024-01-20 15:13:35.472
155,0.27,-9.30,-1.33,2024-01-20 15:13:35.539
83,0.20,-9.34,-1.37,2024-01-20 15:13:35.572
47,0.24,-9.30,-1.29,2024-01-20 15:13:35.606
43,0.24,-9.30,-1.37,2024-01-20 15:13:35.672
111,0.20,-9.34,-1.45,2024-01-20 15:13:35.705
185,0.20,-9.34,-1.37,2024-01-20 15:13:35.738
221,0.24,-9.30,-1.33,2024-01-20 15:13:35.805
169,0.20,-9.34,-1.41,2024-01-20 15:13:35.838
207,0.24,-9.38,-1.41,2024-01-20 15:13:35.871
245,0.24,-9.34,-1.37,2024-01-20 15:13:35.905
314,0.20,-9.34,-1.41,2024-01-20 15:13:35.971
354,0.24,-9.34,-1.37,2024-01-20 15:13:36.005
305,0.27,-9.34,-1.37,2024-01-20 15:13:36.038
281,0.24,-9.34,-1.41,2024-01-20 15:13:36.104
336,0.24,-9.34,-1.37,2024-01-20 15:13:36.137
373,0.24,-9.34,-1.37,2024-01-20 15:13:36.171
437,0.24,-9.34,-1.37,2024-01-20 15:13:36.237
401,0.24,-9.30,-1.37,2024-01-20 15:13:36.271
328,0.24,-9.34,-1.37,2024-01-20 15:13:36.304
335,0.20,-9.34,-1.37,2024-01-20 15:13:36.370
661,0.24,-9.30,-1.29,2024-01-20 15:13:36.404
379,0.27,-9.30,-1.33,2024-01-20 15:13:36.437
441,0.24,-9.30,-1.29,2024-01-20 15:13:36.503
378,0.20,-9.38,-1.37,2024-01-20 15:13:36.537
367,0.31,-9.38,-1.41,2024-01-20 15:13:36.570
385,0.27,-9.34,-1.37,2024-01-20 15:13:36.603
389,0.24,-9.34,-1.37,2024-01-20 15:13:36.669
455,0.24,-9.41,-1.33,2024-01-20 15:13:36.703
395,0.24,-9.30,-1.41,2024-01-20 15:13:36.740
336,0.24,-9.34,-1.37,2024-01-20 15:13:36.803
325,0.20,-9.34,-1.41,2024-01-20 15:13:36.836
384,0.24,-9.34,-1.33,2024-01-20 15:13:36.870
415,0.20,-9.22,-1.37,2024-01-20 15:13:36.936
418,0.24,-9.49,-1.37,2024-01-20 15:13:36.969
343,0.20,-9.34,-1.41,2024-01-20 15:13:37.003
301,0.20,-9.34,-1.33,2024-01-20 15:13:37.069
337,0.27,-9.34,-1.33,2024-01-20 15:13:37.102
360,0.24,-9.34,-1.37,2024-01-20 15:13:37.136
430,0.24,-9.41,-1.45,2024-01-20 15:13:37.202
375,0.24,-9.22,-1.41,2024-01-20 15:13:37.236
301,0.24,-9.34,-1.33,2024-01-20 15:13:37.269
311,0.27,-9.34,-1.37,2024-01-20 15:13:37.303
347,0.20,-9.26,-1.37,2024-01-20 15:13:37.368
659,0.24,-9.34,-1.33,2024-01-20 15:13:37.401
394,0.27,-9.38,-1.37,2024-01-20 15:13:37.435
302,0.20,-9.34,-1.37,2024-01-20 15:13:37.502
297,0.16,-9.30,-1.37,2024-01-20 15:13:37.535
355,0.27,-9.38,-1.41,2024-01-20 15:13:37.568
371,0.24,-9.34,-1.37,2024-01-20 15:13:37.634
398,0.27,-9.34,-1.37,2024-01-20 15:13:37.668
361,0.20,-9.38,-1.37,2024-01-20 15:13:37.702
279,0.20,-9.38,-1.37,2024-01-20 15:13:37.767
296,0.24,-9.38,-1.37,2024-01-20 15:13:37.801
331,0.20,-9.34,-1.37,2024-01-20 15:13:37.834
365,0.24,-9.34,-1.41,2024-01-20 15:13:37.901
356,0.24,-9.34,-1.37,2024-01-20 15:13:37.934
279,0.20,-9.30,-1.41,2024-01-20 15:13:37.969
273,0.27,-9.34,-1.37,2024-01-20 15:13:38.001
317,0.20,-9.38,-1.37,2024-01-20 15:13:38.067
357,0.27,-9.34,-1.33,2024-01-20 15:13:38.101
388,0.24,-9.38,-1.33,2024-01-20 15:13:38.134
332,0.24,-9.38,-1.41,2024-01-20 15:13:38.201
283,0.24,-9.34,-1.33,2024-01-20 15:13:38.234
317,0.24,-9.38,-1.33,2024-01-20 15:13:38.267
325,0.20,-9.34,-1.37,2024-01-20 15:13:38.334
358,0.20,-9.18,-1.41,2024-01-20 15:13:38.366
363,0.24,-9.30,-1.37,2024-01-20 15:13:38.400
659,0.27,-9.22,-1.45,2024-01-20 15:13:38.466
214,0.24,-9.30,-1.37,2024-01-20 15:13:38.499
303,0.24,-9.26,-1.37,2024-01-20 15:13:38.533
359,0.20,-9.18,-1.33,2024-01-20 15:13:38.599
392,0.24,-9.22,-1.41,2024-01-20 15:13:38.633
340,0.24,-9.34,-1.29,2024-01-20 15:13:38.666
267,0.16,-9.34,-1.37,2024-01-20 15:13:38.700
297,0.20,-9.34,-1.33,2024-01-20 15:13:38.766
317,0.20,-9.38,-1.41,2024-01-20 15:13:38.800
367,0.20,-9.34,-1.37,2024-01-20 15:13:38.832
339,0.24,-9.34,-1.37,2024-01-20 15:13:38.899
267,0.20,-9.34,-1.33,2024-01-20 15:13:38.932
259,0.24,-9.34,-1.37,2024-01-20 15:13:38.966
294,0.24,-9.34,-1.37,2024-01-20 15:13:39.032
339,0.27,-9.34,-1.41,2024-01-20 15:13:39.066
360,0.27,-9.38,-1.33,2024-01-20 15:13:39.099
284,0.24,-9.30,-1.45,2024-01-20 15:13:39.165
273,0.20,-9.34,-1.37,2024-01-20 15:13:39.199
289,0.27,-9.38,-1.41,2024-01-20 15:13:39.232
336,0.24,-9.30,-1.37,2024-01-20 15:13:39.299
397,0.27,-9.34,-1.33,2024-01-20 15:13:39.332
339,0.20,-9.30,-1.37,2024-01-20 15:13:39.365
266,0.24,-9.38,-1.33,2024-01-20 15:13:39.398
282,0.24,-9.34,-1.37,2024-01-20 15:13:39.465
661,0.24,-9.34,-1.33,2024-01-20 15:13:39.498
317,0.20,-9.34,-1.37,2024-01-20 15:13:39.531
372,0.20,-9.34,-1.37,2024-01-20 15:13:39.598
305,0.20,-9.34,-1.33,2024-01-20 15:13:39.631
288,0.24,-9.34,-1.37,2024-01-20 15:13:39.665
331,0.24,-9.34,-1.37,2024-01-20 15:13:39.731
326,0.24,-9.34,-1.33,2024-01-20 15:13:39.764
413,0.24,-9.30,-1.33,2024-01-20 15:13:39.798
317,0.24,-9.38,-1.45,2024-01-20 15:13:39.864
245,0.24,-9.38,-1.37,2024-01-20 15:13:39.897
276,0.24,-9.34,-1.41,2024-01-20 15:13:39.931
309,0.24,-9.34,-1.37,2024-01-20 15:13:39.997
363,0.24,-9.34,-1.41,2024-01-20 15:13:40.031
374,0.20,-9.30,-1.41,2024-01-20 15:13:40.064
280,0.20,-9.30,-1.37,2024-01-20 15:13:40.097
248,0.24,-9.26,-1.37,2024-01-20 15:13:40.163
295,0.27,-9.77,-1.33,2024-01-20 15:13:40.197
342,0.31,-9.30,-1.37,2024-01-20 15:13:40.230
382,0.24,-9.38,-1.41,2024-01-20 15:13:40.297
315,0.24,-9.18,-1.26,2024-01-20 15:13:40.331
239,0.31,-9.10,-1.29,2024-01-20 15:13:40.363
253,0.27,-9.22,-1.33,2024-01-20 15:13:40.430
661,0.24,-9.10,-1.29,2024-01-20 15:13:40.463
347,0.31,-9.45,-1.37,2024-01-20 15:13:40.496
339,0.24,-9.22,-1.33,2024-01-20 15:13:40.563
265,0.24,-9.41,-1.37,2024-01-20 15:13:40.596
264,0.31,-9.34,-1.37,2024-01-20 15:13:40.630
295,0.24,-9.22,-1.37,2024-01-20 15:13:40.695
327,0.24,-9.34,-1.37,2024-01-20 15:13:40.729
347,0.24,-9.38,-1.41,2024-01-20 15:13:40.762
281,0.20,-9.26,-1.37,2024-01-20 15:13:40.796
234,0.20,-9.30,-1.33,2024-01-20 15:13:40.862
273,0.27,-9.34,-1.37,2024-01-20 15:13:40.895
313,0.20,-9.38,-1.37,2024-01-20 15:13:40.929
367,0.24,-9.34,-1.37,2024-01-20 15:13:40.995
346,0.24,-9.38,-1.37,2024-01-20 15:13:41.028
259,0.24,-9.34,-1.33,2024-01-20 15:13:41.062
280,0.20,-9.30,-1.37,2024-01-20 15:13:41.128
310,0.24,-9.34,-1.33,2024-01-20 15:13:41.161
362,0.24,-9.34,-1.37,2024-01-20 15:13:41.195
393,0.24,-9.18,-1.33,2024-01-20 15:13:41.261
341,0.27,-9.49,-1.37,2024-01-20 15:13:41.295
264,0.24,-9.34,-1.37,2024-01-20 15:13:41.328
306,0.24,-9.30,-1.37,2024-01-20 15:13:41.395
343,0.27,-9.57,-1.41,2024-01-20 15:13:41.428
401,0.16,-9.30,-1.33,2024-01-20 15:13:41.462
104,0.24,-9.38,-1.37,2024-01-20 15:13:41.495
274,0.24,-9.34,-1.29,2024-01-20 15:13:41.561
304,0.24,-9.34,-1.37,2024-01-20 15:13:41.594
347,0.27,-9.30,-1.29,2024-01-20 15:13:41.627
401,0.24,-9.14,-1.33,2024-01-20 15:13:41.694
407,0.24,-9.30,-1.37,2024-01-20 15:13:41.727
310,0.27,-9.34,-1.37,2024-01-20 15:13:41.761
276,0.24,-9.26,-1.37,2024-01-20 15:13:41.827
301,0.24,-9.34,-1.37,2024-01-20 15:13:41.860
327,0.24,-9.34,-1.33,2024-01-20 15:13:41.894
383,0.20,-9.30,-1.37,2024-01-20 15:13:41.960
322,0.20,-9.30,-1.37,2024-01-20 15:13:41.993
261,0.24,-9.34,-1.37,2024-01-20 15:13:42.026
266,0.31,-9.30,-1.37,2024-01-20 15:13:42.093
298,0.27,-9.30,-1.33,2024-01-20 15:13:42.126
343,0.20,-9.34,-1.29,2024-01-20 15:13:42.160
362,0.24,-9.26,-1.37,2024-01-20 15:13:42.193
276,0.24,-9.34,-1.37,2024-01-20 15:13:42.260
240,0.27,-9.18,-1.37,2024-01-20 15:13:42.293
307,0.27,-9.41,-1.41,2024-01-20 15:13:42.326
349,0.24,-9.30,-1.37,2024-01-20 15:13:42.393
365,0.24,-9.30,-1.33,2024-01-20 15:13:42.426
322,0.20,-9.30,-1.37,2024-01-20 15:13:42.460
256,0.24,-9.34,-1.37,2024-01-20 15:13:42.526
661,0.24,-9.38,-1.41,2024-01-20 15:13:42.559
301,0.27,-9.34,-1.41,2024-01-20 15:13:42.592
358,0.24,-9.30,-1.33,2024-01-20 15:13:42.659
373,0.24,-9.22,-1.41,2024-01-20 15:13:42.692
297,0.27,-9.22,-1.37,2024-01-20 15:13:42.725
279,0.27,-9.26,-1.41,2024-01-20 15:13:42.792
285,0.20,-9.38,-1.41,2024-01-20 15:13:42.825
336,0.24,-9.34,-1.37,2024-01-20 15:13:42.859
369,0.24,-9.30,-1.33,2024-01-20 15:13:42.892
310,0.27,-9.30,-1.33,2024-01-20 15:13:42.958
255,0.27,-9.34,-1.33,2024-01-20 15:13:42.992
279,0.31,-9.49,-1.37,2024-01-20 15:13:43.026
315,0.24,-9.26,-1.41,2024-01-20 15:13:43.091
349,0.27,-9.34,-1.41,2024-01-20 15:13:43.124
354,0.24,-9.49,-1.41,2024-01-20 15:13:43.158
266,0.27,-9.18,-1.37,2024-01-20 15:13:43.224
267,0.31,-9.30,-1.41,2024-01-20 15:13:43.258
302,0.24,-9.30,-1.33,2024-01-20 15:13:43.291
347,0.27,-9.34,-1.37,2024-01-20 15:13:43.358
371,0.27,-9.18,-1.33,2024-01-20 15:13:43.391
294,0.24,-9.14,-1.33,2024-01-20 15:13:43.424
241,0.20,-9.45,-1.37,2024-01-20 15:13:43.491
660,0.16,-9.26,-1.41,2024-01-20 15:13:43.524
254,0.24,-9.34,-1.33,2024-01-20 15:13:43.557
358,0.24,-9.38,-1.37,2024-01-20 15:13:43.591
316,0.20,-9.38,-1.37,2024-01-20 15:13:43.657
245,0.24,-9.22,-1.33,2024-01-20 15:13:43.690
249,0.24,-9.34,-1.37,2024-01-20 15:13:43.724
262,0.20,-9.34,-1.29,2024-01-20 15:13:43.790
310,0.24,-9.30,-1.33,2024-01-20 15:13:43.823
320,0.24,-9.30,-1.37,2024-01-20 15:13:43.857
241,0.27,-9.26,-1.37,2024-01-20 15:13:43.923
199,0.20,-9.38,-1.41,2024-01-20 15:13:43.956
219,0.27,-9.45,-1.37,2024-01-20 15:13:43.990
263,0.27,-9.38,-1.41,2024-01-20 15:13:44.056
319,0.24,-9.34,-1.41,2024-01-20 15:13:44.089
298,0.24,-9.34,-1.29,2024-01-20 15:13:44.123
207,0.24,-9.22,-1.41,2024-01-20 15:13:44.189
236,0.24,-9.26,-1.37,2024-01-20 15:13:44.222
288,0.20,-9.34,-1.41,2024-01-20 15:13:44.256
337,0.27,-9.30,-1.41,2024-01-20 15:13:44.289
383,0.24,-9.30,-1.33,2024-01-20 15:13:44.356
321,0.24,-9.38,-1.37,2024-01-20 15:13:44.389
274,0.20,-9.34,-1.33,2024-01-20 15:13:44.423
300,0.24,-9.34,-1.37,2024-01-20 15:13:44.489
338,0.24,-9.34,-1.37,2024-01-20 15:13:44.523
661,0.27,-9.38,-1.37,2024-01-20 15:13:44.557
317,0.27,-9.38,-1.37,2024-01-20 15:13:44.622
286,0.24,-9.38,-1.33,2024-01-20 15:13:44.656
293,0.16,-9.34,-1.41,2024-01-20 15:13:44.689
367,0.24,-9.30,-1.41,2024-01-20 15:13:44.755
410,0.24,-9.34,-1.37,2024-01-20 15:13:44.789
397,0.24,-9.34,-1.37,2024-01-20 15:13:44.822
340,0.27,-9.34,-1.37,2024-01-20 15:13:44.889
269,0.24,-9.38,-1.33,2024-01-20 15:13:44.922
299,0.24,-9.34,-1.37,2024-01-20 15:13:44.954
344,0.24,-9.38,-1.37,2024-01-20 15:13:44.988
393,0.24,-9.30,-1.41,2024-01-20 15:13:45.055
357,0.24,-9.38,-1.37,2024-01-20 15:13:45.088
276,0.24,-9.38,-1.41,2024-01-20 15:13:45.121
278,0.20,-9.34,-1.37,2024-01-20 15:13:45.187
302,0.20,-9.34,-1.33,2024-01-20 15:13:45.220
349,0.27,-9.34,-1.41,2024-01-20 15:13:45.254
381,0.24,-9.34,-1.41,2024-01-20 15:13:45.320
311,0.24,-9.34,-1.37,2024-01-20 15:13:45.354
284,0.20,-9.34,-1.41,2024-01-20 15:13:45.387
334,0.24,-9.30,-1.37,2024-01-20 15:13:45.454
335,0.20,-9.38,-1.37,2024-01-20 15:13:45.487
357,0.24,-9.38,-1.37,2024-01-20 15:13:45.521
334,0.31,-9.38,-1.37,2024-01-20 15:13:45.587
445,0.16,-9.30,-1.33,2024-01-20 15:13:45.620
28,0.20,-9.34,-1.41,2024-01-20 15:13:45.653
282,0.27,-9.34,-1.37,2024-01-20 15:13:45.687
348,0.24,-9.34,-1.45,2024-01-20 15:13:45.753
393,0.31,-9.34,-1.37,2024-01-20 15:13:45.786
352,0.24,-9.34,-1.33,2024-01-20 15:13:45.820
268,0.20,-9.34,-1.37,2024-01-20 15:13:45.886
260,0.20,-9.34,-1.33,2024-01-20 15:13:45.920
281,0.27,-9.34,-1.41,2024-01-20 15:13:45.953
335,0.27,-9.34,-1.37,2024-01-20 15:13:46.019
334,0.24,-9.34,-1.33,2024-01-20 15:13:46.053
271,0.20,-9.34,-1.37,2024-01-20 15:13:46.086
262,0.20,-9.34,-1.33,2024-01-20 15:13:46.153
261,0.27,-9.38,-1.37,2024-01-20 15:13:46.186
332,0.24,-9.30,-1.41,2024-01-20 15:13:46.219
363,0.20,-9.34,-1.37,2024-01-20 15:13:46.285
298,0.20,-9.30,-1.37,2024-01-20 15:13:46.318
263,0.20,-9.38,-1.37,2024-01-20 15:13:46.352
304,0.24,-9.34,-1.37,2024-01-20 15:13:46.386
320,0.20,-9.34,-1.41,2024-01-20 15:13:46.452
387,0.20,-9.34,-1.37,2024-01-20 15:13:46.486
381,0.24,-9.34,-1.33,2024-01-20 15:13:46.519
610,0.24,-9.26,-1.37,2024-01-20 15:13:46.585
145,0.20,-9.34,-1.33,2024-01-20 15:13:46.618
339,0.24,-9.34,-1.37,2024-01-20 15:13:46.652
394,0.20,-9.30,-1.37,2024-01-20 15:13:46.718
441,0.31,-9.41,-1.37,2024-01-20 15:13:46.752
360,0.24,-9.41,-1.41,2024-01-20 15:13:46.785
313,0.24,-9.34,-1.33,2024-01-20 15:13:46.852
296,0.24,-9.38,-1.33,2024-01-20 15:13:46.884
320,0.27,-9.38,-1.37,2024-01-20 15:13:46.918
392,0.24,-9.38,-1.37,2024-01-20 15:13:46.984
377,0.24,-9.34,-1.33,2024-01-20 15:13:47.018
323,0.27,-9.38,-1.37,2024-01-20 15:13:47.051
285,0.27,-9.34,-1.37,2024-01-20 15:13:47.085
322,0.20,-9.30,-1.33,2024-01-20 15:13:47.151
365,0.20,-9.34,-1.37,2024-01-20 15:13:47.184
389,0.27,-9.38,-1.37,2024-01-20 15:13:47.218
317,0.20,-9.30,-1.29,2024-01-20 15:13:47.284
276,0.24,-9.34,-1.37,2024-01-20 15:13:47.317
294,0.20,-9.34,-1.33,2024-01-20 15:13:47.350
352,0.20,-9.30,-1.33,2024-01-20 15:13:47.417
376,0.27,-9.38,-1.33,2024-01-20 15:13:47.450
333,0.20,-9.34,-1.37,2024-01-20 15:13:47.484
274,0.20,-9.34,-1.37,2024-01-20 15:13:47.550
459,0.24,-9.34,-1.37,2024-01-20 15:13:47.584
99,0.24,-9.30,-1.41,2024-01-20 15:13:47.617
329,0.24,-9.34,-1.33,2024-01-20 15:13:47.650
398,0.24,-9.30,-1.37,2024-01-20 15:13:47.716
341,0.24,-9.34,-1.37,2024-01-20 15:13:47.750
326,0.24,-9.38,-1.33,2024-01-20 15:13:47.783
338,0.27,-9.30,-1.45,2024-01-20 15:13:47.850
335,0.24,-9.30,-1.37,2024-01-20 15:13:47.883
411,0.20,-9.38,-1.37,2024-01-20 15:13:47.917
393,0.24,-9.38,-1.37,2024-01-20 15:13:47.983
272,0.24,-9.34,-1.37,2024-01-20 15:13:48.016
259,0.24,-9.34,-1.33,2024-01-20 15:13:48.049
303,0.20,-9.30,-1.33,2024-01-20 15:13:48.116
323,0.27,-9.34,-1.37,2024-01-20 15:13:48.149
319,0.27,-9.34,-1.41,2024-01-20 15:13:48.183
213,0.20,-9.34,-1.37,2024-01-20 15:13:48.249
226,0.24,-9.38,-1.33,2024-01-20 15:13:48.282
230,0.20,-9.34,-1.33,2024-01-20 15:13:48.315
312,0.20,-9.30,-1.29,2024-01-20 15:13:48.349
391,0.24,-9.34,-1.29,2024-01-20 15:13:48.415
365,0.27,-9.30,-1.33,2024-01-20 15:13:48.448
276,0.20,-9.34,-1.41,2024-01-20 15:13:48.482
275,0.27,-9.38,-1.33,2024-01-20 15:13:48.548
661,0.24,-9.30,-1.29,2024-01-20 15:13:48.581
355,0.24,-9.34,-1.37,2024-01-20 15:13:48.615
442,0.27,-9.38,-1.33,2024-01-20 15:13:48.681
353,0.24,-9.34,-1.33,2024-01-20 15:13:48.715
331,0.27,-9.34,-1.37,2024-01-20 15:13:48.748
356,0.24,-9.34,-1.41,2024-01-20 15:13:48.814
367,0.16,-9.34,-1.37,2024-01-20 15:13:48.848
419,0.24,-9.38,-1.29,2024-01-20 15:13:48.881
335,0.24,-9.34,-1.29,2024-01-20 15:13:48.947
301,0.24,-9.34,-1.41,2024-01-20 15:13:48.981
289,0.24,-9.34,-1.37,2024-01-20 15:13:49.014
318,0.20,-9.34,-1.41,2024-01-20 15:13:49.048
406,0.27,-9.38,-1.37,2024-01-20 15:13:49.114
381,0.24,-9.34,-1.33,2024-01-20 15:13:49.147
292,0.20,-9.30,-1.37,2024-01-20 15:13:49.181
276,0.20,-9.34,-1.37,2024-01-20 15:13:49.247
318,0.20,-9.34,-1.33,2024-01-20 15:13:49.280
340,0.24,-9.30,-1.41,2024-01-20 15:13:49.313
393,0.24,-9.30,-1.37,2024-01-20 15:13:49.380
307,0.27,-9.34,-1.37,2024-01-20 15:13:49.414
652,0.24,-9.30,-1.37,2024-01-20 15:13:49.447
130,0.20,-9.30,-1.33,2024-01-20 15:13:49.513
273,0.24,-9.30,-1.37,2024-01-20 15:13:49.546
343,0.20,-9.30,-1.33,2024-01-20 15:13:49.580
339,0.27,-9.38,-1.33,2024-01-20 15:13:49.646
216,0.24,-9.26,-1.41,2024-01-20 15:13:49.680
201,0.24,-9.34,-1.37,2024-01-20 15:13:49.713
255,0.20,-9.06,-1.37,2024-01-20 15:13:49.747
378,0.31,-9.89,-1.49,2024-01-20 15:13:49.813
448,0.31,-8.94,-1.37,2024-01-20 15:13:49.845
395,0.31,-9.45,-1.41,2024-01-20 15:13:49.879
309,0.20,-9.34,-1.33,2024-01-20 15:13:49.945
332,0.27,-9.41,-1.41,2024-01-20 15:13:49.979
382,0.27,-9.30,-1.33,2024-01-20 15:13:50.012
442,0.24,-9.34,-1.37,2024-01-20 15:13:50.079
362,0.27,-9.14,-1.29,2024-01-20 15:13:50.112
335,0.27,-9.38,-1.41,2024-01-20 15:13:50.146
343,0.20,-9.38,-1.33,2024-01-20 15:13:50.211
354,0.27,-9.45,-1.41,2024-01-20 15:13:50.245
370,0.20,-9.30,-1.41,2024-01-20 15:13:50.278
659,0.24,-9.34,-1.33,2024-01-20 15:13:50.344
130,0.31,-9.38,-1.41,2024-01-20 15:13:50.378
206,0.20,-9.30,-1.41,2024-01-20 15:13:50.412
246,0.16,-9.26,-1.33,2024-01-20 15:13:50.445
296,0.27,-9.34,-1.37,2024-01-20 15:13:50.511
396,0.24,-9.30,-1.37,2024-01-20 15:13:50.545
339,0.24,-9.30,-1.37,2024-01-20 15:13:50.578
257,0.24,-9.34,-1.33,2024-01-20 15:13:50.644
311,0.27,-9.34,-1.45,2024-01-20 15:13:50.678
403,0.20,-9.34,-1.41,2024-01-20 15:13:50.711
473,0.24,-9.30,-1.37,2024-01-20 15:13:50.777
590,0.24,-9.34,-1.37,2024-01-20 15:13:50.811
282,0.24,-9.38,-1.37,2024-01-20 15:13:50.844
194,0.20,-9.38,-1.37,2024-01-20 15:13:50.911
216,0.24,-9.30,-1.33,2024-01-20 15:13:50.944
331,0.24,-9.18,-1.33,2024-01-20 15:13:50.977
442,0.16,-9.34,-1.41,2024-01-20 15:13:51.044
303,0.27,-9.22,-1.41,2024-01-20 15:13:51.077
123,0.27,-9.34,-1.37,2024-01-20 15:13:51.110
179,0.20,-9.34,-1.41,2024-01-20 15:13:51.143
275,0.24,-9.41,-1.41,2024-01-20 15:13:51.210
660,0.24,-9.22,-1.33,2024-01-20 15:13:51.244
260,0.27,-9.14,-1.29,2024-01-20 15:13:51.276
239,0.24,-9.38,-1.41,2024-01-20 15:13:51.343
251,0.27,-9.34,-1.41,2024-01-20 15:13:51.376
338,0.24,-9.30,-1.37,2024-01-20 15:13:51.409
434,0.24,-9.34,-1.37,2024-01-20 15:13:51.476
451,0.20,-9.38,-1.37,2024-01-20 15:13:51.510
318,0.20,-9.34,-1.37,2024-01-20 15:13:51.543
251,0.20,-9.38,-1.41,2024-01-20 15:13:51.609
289,0.20,-9.34,-1.41,2024-01-20 15:13:51.642
310,0.20,-9.18,-1.29,2024-01-20 15:13:51.676
365,0.27,-9.38,-1.37,2024-01-20 15:13:51.742
329,0.24,-9.34,-1.37,2024-01-20 15:13:51.776
260,0.24,-9.30,-1.37,2024-01-20 15:13:51.809
261,0.24,-9.34,-1.33,2024-01-20 15:13:51.843
331,0.20,-9.34,-1.29,2024-01-20 15:13:51.909
463,0.31,-9.34,-1.33,2024-01-20 15:13:51.942
503,0.27,-9.34,-1.41,2024-01-20 15:13:51.976
366,0.20,-9.34,-1.33,2024-01-20 15:13:52.042
284,0.24,-9.38,-1.37,2024-01-20 15:13:52.075
362,0.20,-9.18,-1.41,2024-01-20 15:13:52.109
0,0.24,-9.34,-1.26,2024-01-20 15:13:52.175
272,0.31,-9.30,-1.41,2024-01-20 15:13:52.209
364,0.16,-9.30,-1.37,2024-01-20 15:13:52.242
351,0.16,-9.38,-1.18,2024-01-20 15:13:52.307
291,0.24,-9.34,-1.29,2024-01-20 15:13:52.342
341,0.27,-9.30,-1.53,2024-01-20 15:13:52.375
383,0.27,-9.34,-1.33,2024-01-20 15:13:52.408
418,0.20,-9.38,-1.33,2024-01-20 15:13:52.474
337,0.27,-9.34,-1.37,2024-01-20 15:13:52.508
237,0.24,-9.34,-1.41,2024-01-20 15:13:52.541
235,0.16,-9.34,-1.33,2024-01-20 15:13:52.608
295,0.31,-9.34,-1.37,2024-01-20 15:13:52.641
339,0.20,-9.30,-1.45,2024-01-20 15:13:52.674
379,0.27,-9.34,-1.33,2024-01-20 15:13:52.740
273,0.24,-9.34,-1.33,2024-01-20 15:13:52.774
253,0.20,-9.34,-1.41,2024-01-20 15:13:52.807
279,0.24,-9.34,-1.41,2024-01-20 15:13:52.873
300,0.24,-9.30,-1.41,2024-01-20 15:13:52.906
360,0.24,-9.34,-1.41,2024-01-20 15:13:52.940
328,0.27,-9.38,-1.41,2024-01-20 15:13:53.006
659,0.24,-9.38,-1.33,2024-01-20 15:13:53.040
191,0.24,-9.30,-1.37,2024-01-20 15:13:53.073
288,0.20,-9.34,-1.41,2024-01-20 15:13:53.107
374,0.27,-9.34,-1.37,2024-01-20 15:13:53.173
384,0.20,-9.41,-1.33,2024-01-20 15:13:53.206
299,0.24,-9.38,-1.41,2024-01-20 15:13:53.240
257,0.27,-9.30,-1.37,2024-01-20 15:13:53.306
307,0.24,-9.38,-1.37,2024-01-20 15:13:53.340
330,0.24,-9.38,-1.37,2024-01-20 15:13:53.373
395,0.24,-9.34,-1.33,2024-01-20 15:13:53.439
332,0.20,-9.30,-1.26,2024-01-20 15:13:53.472
259,0.24,-9.30,-1.37,2024-01-20 15:13:53.506
273,0.24,-9.34,-1.41,2024-01-20 15:13:53.572
310,0.24,-9.34,-1.41,2024-01-20 15:13:53.606
367,0.16,-9.34,-1.33,2024-01-20 15:13:53.639
368,0.31,-9.26,-1.29,2024-01-20 15:13:53.706
268,0.24,-8.98,-1.29,2024-01-20 15:13:53.738
269,0.31,-9.38,-1.33,2024-01-20 15:13:53.772
324,0.24,-9.30,-1.37,2024-01-20 15:13:53.806
384,0.24,-9.34,-1.41,2024-01-20 15:13:53.872
402,0.24,-9.26,-1.41,2024-01-20 15:13:53.905
315,0.24,-9.22,-1.37,2024-01-20 15:13:53.939
261,0.24,-9.34,-1.37,2024-01-20 15:13:54.005
659,0.20,-9.30,-1.33,2024-01-20 15:13:54.038
325,0.27,-9.34,-1.37,2024-01-20 15:13:54.072
401,0.20,-9.38,-1.29,2024-01-20 15:13:54.138
385,0.24,-9.30,-1.37,2024-01-20 15:13:54.171
293,0.24,-9.34,-1.37,2024-01-20 15:13:54.205
287,0.24,-9.30,-1.37,2024-01-20 15:13:54.271
315,0.24,-9.30,-1.33,2024-01-20 15:13:54.304
374,0.20,-9.30,-1.33,2024-01-20 15:13:54.337
390,0.27,-9.34,-1.41,2024-01-20 15:13:54.404
293,0.16,-9.30,-1.37,2024-01-20 15:13:54.438
257,0.31,-9.22,-1.33,2024-01-20 15:13:54.471
278,0.35,-9.30,-1.45,2024-01-20 15:13:54.504
329,0.31,-9.18,-1.37,2024-01-20 15:13:54.571
383,0.24,-9.26,-1.37,2024-01-20 15:13:54.604
336,0.24,-9.38,-1.33,2024-01-20 15:13:54.638
254,0.24,-9.38,-1.37,2024-01-20 15:13:54.704
266,0.24,-9.22,-1.41,2024-01-20 15:13:54.736
308,0.20,-9.45,-1.49,2024-01-20 15:13:54.771
409,0.24,-9.38,-1.41,2024-01-20 15:13:54.836
386,0.20,-9.34,-1.37,2024-01-20 15:13:54.870
286,0.27,-9.53,-1.41,2024-01-20 15:13:54.904
256,0.24,-9.26,-1.45,2024-01-20 15:13:54.969
350,0.24,-9.30,-1.37,2024-01-20 15:13:55.003
68,0.27,-9.41,-1.41,2024-01-20 15:13:55.037
390,0.24,-9.30,-1.37,2024-01-20 15:13:55.103
380,0.27,-9.38,-1.45,2024-01-20 15:13:55.137
314,0.24,-9.34,-1.45,2024-01-20 15:13:55.170
286,0.20,-9.30,-1.37,2024-01-20 15:13:55.203
320,0.20,-9.34,-1.37,2024-01-20 15:13:55.269
371,0.24,-9.30,-1.37,2024-01-20 15:13:55.303
399,0.20,-9.30,-1.41,2024-01-20 15:13:55.337
304,0.24,-9.34,-1.41,2024-01-20 15:13:55.402
250,0.24,-9.34,-1.37,2024-01-20 15:13:55.436
291,0.24,-9.34,-1.37,2024-01-20 15:13:55.469
327,0.24,-9.34,-1.37,2024-01-20 15:13:55.535
379,0.24,-9.30,-1.33,2024-01-20 15:13:55.568
346,0.24,-9.34,-1.41,2024-01-20 15:13:55.603
265,0.24,-9.34,-1.33,2024-01-20 15:13:55.669
268,0.24,-9.30,-1.41,2024-01-20 15:13:55.702
304,0.24,-9.38,-1.37,2024-01-20 15:13:55.735
374,0.24,-9.34,-1.37,2024-01-20 15:13:55.801
396,0.24,-9.34,-1.37,2024-01-20 15:13:55.835
293,0.24,-9.34,-1.37,2024-01-20 15:13:55.868
261,0.20,-9.30,-1.29,2024-01-20 15:13:55.902
292,0.24,-9.30,-1.37,2024-01-20 15:13:55.968
345,0.27,-9.38,-1.37,2024-01-20 15:13:56.001
661,0.24,-9.38,-1.37,2024-01-20 15:13:56.035
313,0.20,-9.30,-1.37,2024-01-20 15:13:56.101
258,0.27,-9.38,-1.37,2024-01-20 15:13:56.135
276,0.24,-9.34,-1.33,2024-01-20 15:13:56.168
331,0.24,-9.34,-1.33,2024-01-20 15:13:56.234
397,0.24,-9.34,-1.37,2024-01-20 15:13:56.267
375,0.24,-9.34,-1.37,2024-01-20 15:13:56.301
270,0.20,-9.38,-1.33,2024-01-20 15:13:56.367
243,0.24,-9.34,-1.37,2024-01-20 15:13:56.401
293,0.27,-9.38,-1.37,2024-01-20 15:13:56.434
340,0.24,-9.34,-1.45,2024-01-20 15:13:56.501
391,0.24,-9.30,-1.33,2024-01-20 15:13:56.534
314,0.20,-9.38,-1.37,2024-01-20 15:13:56.567
243,0.24,-9.26,-1.37,2024-01-20 15:13:56.601
231,0.20,-9.30,-1.45,2024-01-20 15:13:56.666
341,0.27,-9.34,-1.41,2024-01-20 15:13:56.700
368,0.27,-9.38,-1.41,2024-01-20 15:13:56.733
421,0.24,-9.34,-1.37,2024-01-20 15:13:56.800
344,0.20,-9.34,-1.29,2024-01-20 15:13:56.833
350,0.20,-9.34,-1.41,2024-01-20 15:13:56.867
325,0.20,-9.34,-1.37,2024-01-20 15:13:56.933
364,0.20,-9.34,-1.37,2024-01-20 15:13:56.966
347,0.24,-9.34,-1.37,2024-01-20 15:13:56.999
245,0.24,-9.34,-1.37,2024-01-20 15:13:57.066
660,0.24,-9.38,-1.37,2024-01-20 15:13:57.099
272,0.24,-9.34,-1.37,2024-01-20 15:13:57.133
226,0.20,-9.34,-1.33,2024-01-20 15:13:57.199
278,0.20,-9.34,-1.41,2024-01-20 15:13:57.233
257,0.27,-9.34,-1.37,2024-01-20 15:13:57.266
163,0.27,-9.30,-1.33,2024-01-20 15:13:57.299
185,0.24,-9.38,-1.37,2024-01-20 15:13:57.366
662,0.24,-9.38,-1.37,2024-01-20 15:13:57.399
662,0.24,-9.34,-1.33,2024-01-20 15:13:57.432
662,0.20,-9.34,-1.37,2024-01-20 15:13:57.498
661,0.24,-9.38,-1.33,2024-01-20 15:13:57.531
662,0.24,-9.34,-1.37,2024-01-20 15:13:57.565
661,0.20,-9.30,-1.37,2024-01-20 15:13:57.632
659,0.27,-9.34,-1.37,2024-01-20 15:13:57.665
660,0.24,-9.34,-1.37,2024-01-20 15:13:57.698
524,0.24,-9.34,-1.41,2024-01-20 15:13:57.765
501,0.27,-9.34,-1.37,2024-01-20 15:13:57.798
265,0.20,-9.34,-1.37,2024-01-20 15:13:57.831
308,0.31,-9.34,-1.41,2024-01-20 15:13:57.898
375,0.20,-9.30,-1.41,2024-01-20 15:13:57.931
320,0.20,-9.34,-1.37,2024-01-20 15:13:57.964
320,0.24,-9.38,-1.37,2024-01-20 15:13:57.998
145,0.24,-9.34,-1.33,2024-01-20 15:13:58.064
660,0.20,-9.34,-1.41,2024-01-20 15:13:58.097
0,0.24,-9.30,-1.37,2024-01-20 15:13:58.131
388,0.27,-9.38,-1.41,2024-01-20 15:13:58.197
322,0.31,-9.30,-1.37,2024-01-20 15:13:58.231
212,0.20,-9.34,-1.33,2024-01-20 15:13:58.264
12,0.24,-9.34,-1.37,2024-01-20 15:13:58.331
31,0.20,-9.30,-1.37,2024-01-20 15:13:58.363
95,0.24,-9.38,-1.41,2024-01-20 15:13:58.397
157,0.24,-9.34,-1.37,2024-01-20 15:13:58.430
0,0.24,-9.26,-1.33,2024-01-20 15:13:58.497
513,0.27,-9.30,-1.37,2024-01-20 15:13:58.530
657,0.24,-9.38,-1.37,2024-01-20 15:13:58.563
545,0.24,-9.38,-1.37,2024-01-20 15:13:58.630
108,0.20,-9.34,-1.33,2024-01-20 15:13:58.663
163,0.24,-9.34,-1.33,2024-01-20 15:13:58.696
0,0.24,-9.34,-1.41,2024-01-20 15:13:58.730
478,0.24,-9.34,-1.45,2024-01-20 15:13:58.796
250,0.24,-9.38,-1.33,2024-01-20 15:13:58.830
251,0.24,-9.30,-1.37,2024-01-20 15:13:58.863
376,0.24,-9.34,-1.37,2024-01-20 15:13:58.929
175,0.24,-9.34,-1.41,2024-01-20 15:13:58.963
364,0.24,-9.34,-1.37,2024-01-20 15:13:58.996
304,0.20,-9.30,-1.37,2024-01-20 15:13:59.062
0,0.27,-9.34,-1.41,2024-01-20 15:13:59.096
227,0.24,-9.30,-1.33,2024-01-20 15:13:59.129
211,0.27,-9.38,-1.37,2024-01-20 15:13:59.195
397,0.27,-9.34,-1.37,2024-01-20 15:13:59.228
498,0.20,-9.30,-1.33,2024-01-20 15:13:59.262
373,0.27,-9.38,-1.37,2024-01-20 15:13:59.296
244,0.24,-9.30,-1.33,2024-01-20 15:13:59.362
149,0.20,-9.34,-1.37,2024-01-20 15:13:59.395
19,0.24,-9.30,-1.37,2024-01-20 15:13:59.428
430,0.24,-9.41,-1.33,2024-01-20 15:13:59.495
167,0.24,-9.34,-1.41,2024-01-20 15:13:59.528
658,0.27,-9.38,-1.33,2024-01-20 15:13:59.562
380,0.24,-9.30,-1.37,2024-01-20 15:13:59.627
315,0.20,-9.34,-1.33,2024-01-20 15:13:59.662
431,0.24,-9.34,-1.26,2024-01-20 15:13:59.695
400,0.24,-9.34,-1.37,2024-01-20 15:13:59.761
553,0.20,-9.30,-1.33,2024-01-20 15:13:59.795
255,0.24,-9.34,-1.41,2024-01-20 15:13:59.827
55,0.24,-9.38,-1.37,2024-01-20 15:13:59.861
0,0.24,-9.30,-1.37,2024-01-20 15:13:59.928
0,0.24,-9.34,-1.37,2024-01-20 15:13:59.961
485,0.24,-9.34,-1.41,2024-01-20 15:13:59.994
579,0.27,-9.30,-1.37,2024-01-20 15:14:00.060
541,0.27,-9.30,-1.33,2024-01-20 15:14:00.094
316,0.20,-9.34,-1.41,2024-01-20 15:14:00.127
661,0.24,-9.30,-1.37,2024-01-20 15:14:00.193
661,0.24,-9.34,-1.37,2024-01-20 15:14:00.227
661,0.24,-9.30,-1.37,2024-01-20 15:14:00.260
486,0.27,-9.38,-1.41,2024-01-20 15:14:00.294
345,0.20,-9.30,-1.33,2024-01-20 15:14:00.360
128,0.27,-9.38,-1.33,2024-01-20 15:14:00.394
218,0.24,-9.34,-1.33,2024-01-20 15:14:00.427
296,0.24,-9.34,-1.37,2024-01-20 15:14:00.493
301,0.20,-9.34,-1.33,2024-01-20 15:14:00.527
168,0.24,-9.34,-1.37,2024-01-20 15:14:00.560
196,0.24,-9.30,-1.33,2024-01-20 15:14:00.626
278,0.20,-9.34,-1.37,2024-01-20 15:14:00.659
296,0.20,-9.30,-1.37,2024-01-20 15:14:00.693
321,0.24,-9.38,-1.33,2024-01-20 15:14:00.759
167,0.20,-9.34,-1.41,2024-01-20 15:14:00.793
660,0.24,-9.30,-1.41,2024-01-20 15:14:00.826
249,0.24,-9.34,-1.41,2024-01-20 15:14:00.892
302,0.24,-9.30,-1.33,2024-01-20 15:14:00.926
334,0.20,-9.38,-1.37,2024-01-20 15:14:00.959
375,0.24,-9.26,-1.37,2024-01-20 15:14:00.993
330,0.24,-9.38,-1.37,2024-01-20 15:14:01.059
277,0.24,-9.34,-1.33,2024-01-20 15:14:01.092
302,0.27,-9.38,-1.33,2024-01-20 15:14:01.125
333,0.24,-9.34,-1.41,2024-01-20 15:14:01.192
339,0.24,-9.38,-1.33,2024-01-20 15:14:01.226
305,0.24,-9.34,-1.37,2024-01-20 15:14:01.258
242,0.27,-9.38,-1.37,2024-01-20 15:14:01.325
267,0.20,-9.34,-1.41,2024-01-20 15:14:01.359
278,0.20,-9.30,-1.41,2024-01-20 15:14:01.392
342,0.24,-9.38,-1.37,2024-01-20 15:14:01.458
322,0.24,-9.30,-1.33,2024-01-20 15:14:01.491
265,0.24,-9.34,-1.37,2024-01-20 15:14:01.524
330,0.24,-9.30,-1.37,2024-01-20 15:14:01.591
419,0.24,-9.30,-1.37,2024-01-20 15:14:01.624
447,0.24,-9.30,-1.37,2024-01-20 15:14:01.658
427,0.24,-9.34,-1.37,2024-01-20 15:14:01.691
261,0.27,-9.38,-1.41,2024-01-20 15:14:01.758
124,0.24,-9.34,-1.41,2024-01-20 15:14:01.791
181,0.20,-9.30,-1.41,2024-01-20 15:14:01.824
362,0.20,-9.34,-1.29,2024-01-20 15:14:01.891
399,0.20,-9.34,-1.45,2024-01-20 15:14:01.923
418,0.20,-9.34,-1.33,2024-01-20 15:14:01.958
280,0.27,-9.38,-1.41,2024-01-20 15:14:02.024
338,0.24,-9.30,-1.37,2024-01-20 15:14:02.057
281,0.20,-9.34,-1.37,2024-01-20 15:14:02.091
369,0.24,-9.34,-1.29,2024-01-20 15:14:02.156
414,0.24,-9.38,-1.37,2024-01-20 15:14:02.190
296,0.27,-9.38,-1.37,2024-01-20 15:14:02.224
353,0.24,-9.34,-1.41,2024-01-20 15:14:02.290
295,0.20,-9.26,-1.41,2024-01-20 15:14:02.324
317,0.24,-9.38,-1.37,2024-01-20 15:14:02.356
445,0.20,-9.34,-1.33,2024-01-20 15:14:02.390
325,0.24,-9.34,-1.37,2024-01-20 15:14:02.457
297,0.16,-9.30,-1.37,2024-01-20 15:14:02.489
302,0.27,-9.38,-1.37,2024-01-20 15:14:02.523
310,0.20,-9.34,-1.37,2024-01-20 15:14:02.589
348,0.24,-9.34,-1.33,2024-01-20 15:14:02.623
352,0.27,-9.38,-1.41,2024-01-20 15:14:02.657
171,0.24,-9.30,-1.41,2024-01-20 15:14:02.722
289,0.24,-9.34,-1.37,2024-01-20 15:14:02.756
309,0.24,-9.34,-1.41,2024-01-20 15:14:02.789
369,0.24,-9.30,-1.37,2024-01-20 15:14:02.856
404,0.24,-9.34,-1.41,2024-01-20 15:14:02.889
340,0.24,-9.34,-1.33,2024-01-20 15:14:02.922
308,0.24,-9.34,-1.37,2024-01-20 15:14:02.989
338,0.27,-9.34,-1.37,2024-01-20 15:14:03.022
317,0.24,-9.34,-1.37,2024-01-20 15:14:03.056
273,0.24,-9.34,-1.33,2024-01-20 15:14:03.088
185,0.24,-9.34,-1.37,2024-01-20 15:14:03.155
111,0.24,-9.34,-1.37,2024-01-20 15:14:03.189
0,0.24,-9.34,-1.41,2024-01-20 15:14:03.222
196,0.24,-9.34,-1.37,2024-01-20 15:14:03.288
453,0.20,-8.94,-1.33,2024-01-20 15:14:03.321
293,0.31,-9.38,-1.37,2024-01-20 15:14:03.354
321,0.24,-9.18,-1.41,2024-01-20 15:14:03.421
390,0.27,-9.30,-1.37,2024-01-20 15:14:03.455
497,0.20,-9.18,-1.37,2024-01-20 15:14:03.488
551,0.24,-9.34,-1.41,2024-01-20 15:14:03.554
630,0.27,-9.22,-1.33,2024-01-20 15:14:03.587
248,0.20,-9.49,-1.41,2024-01-20 15:14:03.620
426,0.31,-9.45,-1.41,2024-01-20 15:14:03.654
396,0.20,-9.45,-1.37,2024-01-20 15:14:03.721
455,0.27,-9.30,-1.37,2024-01-20 15:14:03.754
471,0.27,-8.98,-1.29,2024-01-20 15:14:03.788
468,0.24,-9.41,-1.41,2024-01-20 15:14:03.854
418,0.24,-9.34,-1.33,2024-01-20 15:14:03.886
332,0.27,-9.45,-1.45,2024-01-20 15:14:03.920
312,0.27,-9.26,-1.33,2024-01-20 15:14:03.986
339,0.27,-9.34,-1.37,2024-01-20 15:14:04.020
358,0.24,-9.22,-1.41,2024-01-20 15:14:04.053
379,0.31,-9.45,-1.29,2024-01-20 15:14:04.120
315,0.31,-9.34,-1.33,2024-01-20 15:14:04.153
272,0.24,-9.10,-1.41,2024-01-20 15:14:04.187
290,0.24,-9.22,-1.37,2024-01-20 15:14:04.252
328,0.16,-9.26,-1.45,2024-01-20 15:14:04.286
375,0.24,-9.34,-1.37,2024-01-20 15:14:04.319
322,0.24,-9.34,-1.33,2024-01-20 15:14:04.353
259,0.20,-9.34,-1.33,2024-01-20 15:14:04.419
264,0.24,-9.34,-1.41,2024-01-20 15:14:04.452
660,0.24,-9.34,-1.37,2024-01-20 15:14:04.486
347,0.24,-9.38,-1.37,2024-01-20 15:14:04.552
355,0.27,-9.34,-1.41,2024-01-20 15:14:04.585
287,0.24,-9.34,-1.41,2024-01-20 15:14:04.619
292,0.24,-9.38,-1.37,2024-01-20 15:14:04.685
317,0.20,-9.34,-1.33,2024-01-20 15:14:04.719
356,0.24,-9.34,-1.37,2024-01-20 15:14:04.752
368,0.24,-9.34,-1.37,2024-01-20 15:14:04.819
299,0.24,-9.38,-1.37,2024-01-20 15:14:04.852
246,0.20,-9.30,-1.37,2024-01-20 15:14:04.886
270,0.24,-9.34,-1.37,2024-01-20 15:14:04.952
302,0.24,-9.34,-1.37,2024-01-20 15:14:04.984
353,0.24,-9.34,-1.29,2024-01-20 15:14:05.018
327,0.20,-9.30,-1.37,2024-01-20 15:14:05.052
248,0.24,-9.34,-1.33,2024-01-20 15:14:05.118
264,0.27,-9.34,-1.33,2024-01-20 15:14:05.152
307,0.24,-9.34,-1.41,2024-01-20 15:14:05.185
339,0.24,-9.38,-1.33,2024-01-20 15:14:05.251
356,0.24,-9.34,-1.37,2024-01-20 15:14:05.285
299,0.20,-9.30,-1.41,2024-01-20 15:14:05.318
12,0.24,-9.34,-1.37,2024-01-20 15:14:05.384
283,0.24,-9.38,-1.41,2024-01-20 15:14:05.418
333,0.27,-9.30,-1.41,2024-01-20 15:14:05.451
394,0.24,-9.34,-1.45,2024-01-20 15:14:05.517
402,0.20,-9.34,-1.37,2024-01-20 15:14:05.551
326,0.20,-9.38,-1.41,2024-01-20 15:14:05.584
280,0.31,-9.57,-1.49,2024-01-20 15:14:05.650
301,0.20,-9.22,-1.45,2024-01-20 15:14:05.684
332,0.27,-9.22,-1.37,2024-01-20 15:14:05.716
388,0.20,-9.38,-1.37,2024-01-20 15:14:05.750
323,0.24,-9.34,-1.45,2024-01-20 15:14:05.816
258,0.24,-9.30,-1.33,2024-01-20 15:14:05.850
288,0.20,-9.34,-1.37,2024-01-20 15:14:05.884
317,0.27,-9.30,-1.41,2024-01-20 15:14:05.949
372,0.27,-9.22,-1.41,2024-01-20 15:14:05.983
364,0.20,-8.79,-1.45,2024-01-20 15:14:06.017
281,0.27,-9.18,-1.26,2024-01-20 15:14:06.083
269,0.20,-9.22,-1.33,2024-01-20 15:14:06.116
287,0.24,-9.26,-1.37,2024-01-20 15:14:06.150
396,0.27,-9.38,-1.33,2024-01-20 15:14:06.215
380,0.20,-9.34,-1.41,2024-01-20 15:14:06.249
330,0.24,-9.38,-1.41,2024-01-20 15:14:06.283
291,0.27,-9.26,-1.33,2024-01-20 15:14:06.348
324,0.24,-9.41,-1.45,2024-01-20 15:14:06.382
357,0.24,-9.26,-1.37,2024-01-20 15:14:06.416
388,0.27,-9.38,-1.33,2024-01-20 15:14:06.449
359,0.27,-9.41,-1.37,2024-01-20 15:14:06.516
264,0.24,-9.41,-1.33,2024-01-20 15:14:06.549
281,0.24,-9.34,-1.33,2024-01-20 15:14:06.583
327,0.27,-9.34,-1.37,2024-01-20 15:14:06.649
358,0.27,-9.41,-1.37,2024-01-20 15:14:06.682
376,0.24,-9.38,-1.37,2024-01-20 15:14:06.715
299,0.24,-9.38,-1.37,2024-01-20 15:14:06.782
268,0.24,-9.30,-1.37,2024-01-20 15:14:06.815
310,0.24,-9.26,-1.33,2024-01-20 15:14:06.848
362,0.24,-9.38,-1.41,2024-01-20 15:14:06.915
368,0.24,-9.34,-1.37,2024-01-20 15:14:06.948
327,0.20,-9.38,-1.33,2024-01-20 15:14:06.981
251,0.27,-9.34,-1.33,2024-01-20 15:14:07.048
294,0.24,-9.34,-1.37,2024-01-20 15:14:07.081
325,0.27,-9.41,-1.41,2024-01-20 15:14:07.114
377,0.20,-9.34,-1.41,2024-01-20 15:14:07.148
386,0.24,-9.38,-1.37,2024-01-20 15:14:07.214
326,0.24,-9.30,-1.37,2024-01-20 15:14:07.248
271,0.24,-9.38,-1.37,2024-01-20 15:14:07.281
314,0.27,-9.34,-1.33,2024-01-20 15:14:07.348
354,0.24,-9.34,-1.33,2024-01-20 15:14:07.380
372,0.24,-9.34,-1.33,2024-01-20 15:14:07.414
338,0.20,-9.34,-1.41,2024-01-20 15:14:07.480
279,0.24,-9.38,-1.33,2024-01-20 15:14:07.514
285,0.24,-9.34,-1.37,2024-01-20 15:14:07.547
317,0.24,-9.26,-1.33,2024-01-20 15:14:07.614
373,0.20,-9.30,-1.33,2024-01-20 15:14:07.647
361,0.20,-9.30,-1.33,2024-01-20 15:14:07.680
292,0.24,-9.34,-1.41,2024-01-20 15:14:07.746
284,0.24,-9.30,-1.41,2024-01-20 15:14:07.779
319,0.20,-9.34,-1.37,2024-01-20 15:14:07.813
368,0.20,-9.34,-1.37,2024-01-20 15:14:07.846
380,0.24,-9.38,-1.41,2024-01-20 15:14:07.913
332,0.20,-9.38,-1.33,2024-01-20 15:14:07.946
290,0.24,-9.34,-1.37,2024-01-20 15:14:07.980
661,0.24,-9.38,-1.41,2024-01-20 15:14:08.046
343,0.24,-9.38,-1.37,2024-01-20 15:14:08.079
393,0.24,-9.34,-1.41,2024-01-20 15:14:08.112
373,0.24,-9.34,-1.41,2024-01-20 15:14:08.179
315,0.24,-9.34,-1.33,2024-01-20 15:14:08.212
294,0.24,-9.34,-1.33,2024-01-20 15:14:08.246
312,0.20,-9.34,-1.37,2024-01-20 15:14:08.312
367,0.20,-9.30,-1.33,2024-01-20 15:14:08.346
366,0.24,-9.34,-1.37,2024-01-20 15:14:08.379
299,0.24,-9.30,-1.37,2024-01-20 15:14:08.445
270,0.24,-9.38,-1.41,2024-01-20 15:14:08.479
287,0.20,-9.34,-1.33,2024-01-20 15:14:08.512
326,0.24,-9.30,-1.41,2024-01-20 15:14:08.545
381,0.24,-9.38,-1.33,2024-01-20 15:14:08.612
341,0.27,-9.34,-1.37,2024-01-20 15:14:08.645
277,0.24,-9.30,-1.41,2024-01-20 15:14:08.678
277,0.24,-9.34,-1.37,2024-01-20 15:14:08.745
313,0.27,-9.38,-1.41,2024-01-20 15:14:08.777
365,0.24,-9.30,-1.41,2024-01-20 15:14:08.812
397,0.24,-9.34,-1.41,2024-01-20 15:14:08.877
291,0.20,-9.34,-1.41,2024-01-20 15:14:08.911
279,0.20,-9.26,-1.29,2024-01-20 15:14:08.944
299,0.31,-9.34,-1.37,2024-01-20 15:14:09.011
533,0.24,-9.30,-1.37,2024-01-20 15:14:09.044
183,0.24,-9.34,-1.37,2024-01-20 15:14:09.078
351,0.24,-9.34,-1.41,2024-01-20 15:14:09.144
291,0.20,-9.34,-1.37,2024-01-20 15:14:09.177
329,0.20,-9.34,-1.37,2024-01-20 15:14:09.211
352,0.20,-9.34,-1.37,2024-01-20 15:14:09.243
381,0.24,-9.34,-1.41,2024-01-20 15:14:09.311
394,0.20,-9.34,-1.37,2024-01-20 15:14:09.344
290,0.24,-9.34,-1.33,2024-01-20 15:14:09.377
283,0.24,-9.34,-1.37,2024-01-20 15:14:09.443
319,0.24,-9.34,-1.41,2024-01-20 15:14:09.476
366,0.24,-9.34,-1.37,2024-01-20 15:14:09.510
396,0.20,-9.34,-1.33,2024-01-20 15:14:09.576
329,0.24,-9.34,-1.41,2024-01-20 15:14:09.610
267,0.24,-9.34,-1.37,2024-01-20 15:14:09.643
289,0.24,-9.34,-1.37,2024-01-20 15:14:09.710
331,0.20,-9.26,-1.41,2024-01-20 15:14:09.743
377,0.27,-9.22,-1.37,2024-01-20 15:14:09.776
398,0.24,-9.34,-1.41,2024-01-20 15:14:09.843
288,0.27,-9.14,-1.37,2024-01-20 15:14:09.876
283,0.20,-9.30,-1.41,2024-01-20 15:14:09.909
322,0.24,-9.38,-1.33,2024-01-20 15:14:09.943
498,0.27,-9.38,-1.37,2024-01-20 15:14:10.009
152,0.24,-9.34,-1.37,2024-01-20 15:14:10.044
315,0.20,-9.34,-1.37,2024-01-20 15:14:10.077
278,0.24,-9.38,-1.41,2024-01-20 15:14:10.142
330,0.24,-9.38,-1.33,2024-01-20 15:14:10.175
378,0.24,-9.30,-1.41,2024-01-20 15:14:10.209
386,0.27,-9.30,-1.37,2024-01-20 15:14:10.276
362,0.24,-9.34,-1.33,2024-01-20 15:14:10.308
279,0.27,-9.38,-1.45,2024-01-20 15:14:10.341
271,0.20,-9.34,-1.37,2024-01-20 15:14:10.408
335,0.24,-9.34,-1.37,2024-01-20 15:14:10.441
369,0.27,-9.18,-1.33,2024-01-20 15:14:10.475
377,0.27,-9.38,-1.37,2024-01-20 15:14:10.541
300,0.20,-9.38,-1.41,2024-01-20 15:14:10.575
264,0.27,-9.30,-1.37,2024-01-20 15:14:10.608
304,0.24,-9.30,-1.45,2024-01-20 15:14:10.642
342,0.20,-9.34,-1.37,2024-01-20 15:14:10.708
377,0.24,-9.34,-1.41,2024-01-20 15:14:10.742
346,0.20,-9.34,-1.37,2024-01-20 15:14:10.775
75,0.20,-9.30,-1.41,2024-01-20 15:14:10.841
310,0.20,-9.34,-1.33,2024-01-20 15:14:10.874
322,0.24,-9.38,-1.37,2024-01-20 15:14:10.908
389,0.24,-9.30,-1.33,2024-01-20 15:14:10.974
166,0.20,-9.34,-1.33,2024-01-20 15:14:11.007
342,0.20,-9.34,-1.37,2024-01-20 15:14:11.041
300,0.27,-9.30,-1.37,2024-01-20 15:14:11.107
336,0.24,-9.34,-1.33,2024-01-20 15:14:11.141
372,0.20,-9.30,-1.37,2024-01-20 15:14:11.173
388,0.20,-9.30,-1.33,2024-01-20 15:14:11.207
373,0.24,-9.26,-1.37,2024-01-20 15:14:11.273
305,0.20,-9.34,-1.37,2024-01-20 15:14:11.307
291,0.20,-9.30,-1.41,2024-01-20 15:14:11.340
323,0.27,-9.34,-1.37,2024-01-20 15:14:11.406
383,0.24,-9.30,-1.37,2024-01-20 15:14:11.440
396,0.27,-9.30,-1.41,2024-01-20 15:14:11.475
314,0.24,-9.34,-1.41,2024-01-20 15:14:11.540
285,0.24,-9.34,-1.37,2024-01-20 15:14:11.573
316,0.24,-9.34,-1.33,2024-01-20 15:14:11.606
369,0.24,-9.34,-1.33,2024-01-20 15:14:11.672
392,0.24,-9.30,-1.37,2024-01-20 15:14:11.706
325,0.24,-9.34,-1.37,2024-01-20 15:14:11.739
268,0.24,-9.34,-1.45,2024-01-20 15:14:11.806
296,0.20,-9.30,-1.33,2024-01-20 15:14:11.839
136,0.24,-9.30,-1.33,2024-01-20 15:14:11.872
380,0.31,-9.34,-1.33,2024-01-20 15:14:11.906
391,0.24,-9.34,-1.37,2024-01-20 15:14:11.972
319,0.20,-9.34,-1.37,2024-01-20 15:14:12.005
290,0.31,-9.38,-1.33,2024-01-20 15:14:12.039
321,0.24,-9.34,-1.37,2024-01-20 15:14:12.106
353,0.24,-9.34,-1.33,2024-01-20 15:14:12.139
384,0.20,-9.30,-1.41,2024-01-20 15:14:12.172
337,0.24,-9.30,-1.41,2024-01-20 15:14:12.238
265,0.27,-9.34,-1.33,2024-01-20 15:14:12.272
297,0.24,-9.34,-1.37,2024-01-20 15:14:12.305
313,0.24,-9.34,-1.37,2024-01-20 15:14:12.371
359,0.24,-9.34,-1.37,2024-01-20 15:14:12.405
352,0.24,-9.34,-1.33,2024-01-20 15:14:12.438
290,0.27,-9.34,-1.37,2024-01-20 15:14:12.504
277,0.20,-9.34,-1.37,2024-01-20 15:14:12.537
321,0.20,-9.34,-1.37,2024-01-20 15:14:12.571
361,0.24,-9.34,-1.37,2024-01-20 15:14:12.604
384,0.24,-9.34,-1.45,2024-01-20 15:14:12.671
658,0.24,-9.34,-1.41,2024-01-20 15:14:12.704
268,0.27,-9.34,-1.33,2024-01-20 15:14:12.737
297,0.24,-9.30,-1.37,2024-01-20 15:14:12.804
340,0.24,-9.34,-1.41,2024-01-20 15:14:12.837
411,0.24,-9.30,-1.37,2024-01-20 15:14:12.871
357,0.24,-9.30,-1.41,2024-01-20 15:14:12.937
299,0.24,-9.34,-1.41,2024-01-20 15:14:12.970
293,0.24,-9.34,-1.37,2024-01-20 15:14:13.004
313,0.24,-9.34,-1.33,2024-01-20 15:14:13.070
355,0.24,-9.34,-1.41,2024-01-20 15:14:13.104
388,0.24,-9.34,-1.33,2024-01-20 15:14:13.136
300,0.20,-9.26,-1.37,2024-01-20 15:14:13.203
272,0.20,-9.30,-1.41,2024-01-20 15:14:13.237
290,0.24,-9.34,-1.37,2024-01-20 15:14:13.270
365,0.16,-9.34,-1.37,2024-01-20 15:14:13.303
392,0.27,-9.34,-1.41,2024-01-20 15:14:13.369
350,0.24,-9.34,-1.41,2024-01-20 15:14:13.403
285,0.20,-9.30,-1.41,2024-01-20 15:14:13.436
334,0.20,-9.38,-1.37,2024-01-20 15:14:13.503
55,0.27,-9.30,-1.37,2024-01-20 15:14:13.536
341,0.20,-9.38,-1.37,2024-01-20 15:14:13.571
393,0.24,-9.34,-1.37,2024-01-20 15:14:13.636
360,0.20,-9.34,-1.37,2024-01-20 15:14:13.669
308,0.24,-9.30,-1.37,2024-01-20 15:14:13.702
306,0.20,-9.30,-1.41,2024-01-20 15:14:13.769
357,0.24,-9.34,-1.33,2024-01-20 15:14:13.802
376,0.24,-9.34,-1.37,2024-01-20 15:14:13.836
355,0.24,-9.34,-1.37,2024-01-20 15:14:13.902
276,0.20,-9.34,-1.33,2024-01-20 15:14:13.935
266,0.24,-9.38,-1.37,2024-01-20 15:14:13.969
294,0.24,-9.34,-1.37,2024-01-20 15:14:14.002
358,0.24,-9.38,-1.33,2024-01-20 15:14:14.069
368,0.27,-9.34,-1.33,2024-01-20 15:14:14.102
316,0.24,-9.38,-1.45,2024-01-20 15:14:14.135
284,0.20,-9.34,-1.37,2024-01-20 15:14:14.201
298,0.24,-9.34,-1.29,2024-01-20 15:14:14.235
340,0.24,-9.34,-1.41,2024-01-20 15:14:14.269
346,0.20,-9.34,-1.41,2024-01-20 15:14:14.335
656,0.24,-9.34,-1.41,2024-01-20 15:14:14.368
248,0.24,-9.34,-1.37,2024-01-20 15:14:14.402
277,0.27,-9.34,-1.41,2024-01-20 15:14:14.467
336,0.24,-9.34,-1.37,2024-01-20 15:14:14.501
381,0.20,-9.30,-1.37,2024-01-20 15:14:14.535
380,0.31,-9.38,-1.37,2024-01-20 15:14:14.600
297,0.24,-9.38,-1.41,2024-01-20 15:14:14.634
261,0.24,-9.34,-1.33,2024-01-20 15:14:14.667
281,0.24,-9.34,-1.41,2024-01-20 15:14:14.701
325,0.24,-9.34,-1.45,2024-01-20 15:14:14.767
382,0.24,-9.26,-1.29,2024-01-20 15:14:14.800
322,0.20,-9.34,-1.37,2024-01-20 15:14:14.834
267,0.24,-9.30,-1.37,2024-01-20 15:14:14.900
281,0.20,-9.34,-1.37,2024-01-20 15:14:14.933
328,0.24,-9.30,-1.37,2024-01-20 15:14:14.967
368,0.27,-9.30,-1.41,2024-01-20 15:14:15.033
365,0.20,-9.34,-1.37,2024-01-20 15:14:15.067
291,0.24,-9.38,-1.37,2024-01-20 15:14:15.100
273,0.24,-9.34,-1.41,2024-01-20 15:14:15.167
334,0.24,-9.34,-1.37,2024-01-20 15:14:15.200
368,0.24,-9.34,-1.33,2024-01-20 15:14:15.233
388,0.24,-9.34,-1.33,2024-01-20 15:14:15.300
328,0.24,-9.34,-1.37,2024-01-20 15:14:15.333
256,0.20,-9.41,-1.33,2024-01-20 15:14:15.366
409,0.27,-9.38,-1.37,2024-01-20 15:14:15.399
326,0.24,-9.30,-1.37,2024-01-20 15:14:15.466
389,0.20,-9.34,-1.41,2024-01-20 15:14:15.500
378,0.24,-9.34,-1.41,2024-01-20 15:14:15.533
312,0.24,-9.30,-1.37,2024-01-20 15:14:15.598
308,0.27,-9.38,-1.41,2024-01-20 15:14:15.632
323,0.20,-9.34,-1.41,2024-01-20 15:14:15.666
367,0.24,-9.30,-1.29,2024-01-20 15:14:15.732
376,0.20,-9.38,-1.37,2024-01-20 15:14:15.765
312,0.24,-9.38,-1.33,2024-01-20 15:14:15.799
272,0.24,-9.34,-1.37,2024-01-20 15:14:15.865
297,0.24,-9.34,-1.37,2024-01-20 15:14:15.898
337,0.27,-9.34,-1.33,2024-01-20 15:14:15.932
378,0.24,-9.30,-1.37,2024-01-20 15:14:15.998
347,0.24,-9.34,-1.37,2024-01-20 15:14:16.032
279,0.24,-9.34,-1.37,2024-01-20 15:14:16.065
294,0.20,-9.30,-1.45,2024-01-20 15:14:16.098
321,0.24,-9.34,-1.37,2024-01-20 15:14:16.165
386,0.24,-9.34,-1.33,2024-01-20 15:14:16.198
382,0.20,-9.34,-1.37,2024-01-20 15:14:16.231
301,0.24,-9.34,-1.37,2024-01-20 15:14:16.297
268,0.20,-9.30,-1.33,2024-01-20 15:14:16.331
296,0.24,-9.30,-1.37,2024-01-20 15:14:16.364
473,0.16,-9.30,-1.37,2024-01-20 15:14:16.431
387,0.24,-9.38,-1.41,2024-01-20 15:14:16.464
353,0.20,-9.34,-1.37,2024-01-20 15:14:16.497
284,0.27,-9.38,-1.37,2024-01-20 15:14:16.564
309,0.24,-9.30,-1.29,2024-01-20 15:14:16.597
351,0.20,-9.34,-1.41,2024-01-20 15:14:16.630
373,0.20,-9.30,-1.33,2024-01-20 15:14:16.697
380,0.24,-9.34,-1.37,2024-01-20 15:14:16.730
298,0.20,-9.30,-1.33,2024-01-20 15:14:16.764
286,0.20,-9.30,-1.37,2024-01-20 15:14:16.797
409,0.27,-9.34,-1.33,2024-01-20 15:14:16.863
583,0.24,-9.34,-1.37,2024-01-20 15:14:16.897
661,0.24,-9.38,-1.41,2024-01-20 15:14:16.930
662,0.24,-9.34,-1.37,2024-01-20 15:14:16.997
659,0.20,-9.30,-1.33,2024-01-20 15:14:17.029
541,0.27,-9.34,-1.37,2024-01-20 15:14:17.063
0,0.24,-9.30,-1.37,2024-01-20 15:14:17.129
0,0.24,-9.38,-1.33,2024-01-20 15:14:17.162
114,0.24,-9.30,-1.37,2024-01-20 15:14:17.197
108,0.24,-9.34,-1.37,2024-01-20 15:14:17.230
235,0.24,-9.34,-1.37,2024-01-20 15:14:17.296
32,0.24,-9.26,-1.41,2024-01-20 15:14:17.329
249,0.24,-9.34,-1.33,2024-01-20 15:14:17.363
284,0.20,-9.30,-1.41,2024-01-20 15:14:17.429
416,0.24,-9.34,-1.37,2024-01-20 15:14:17.462
294,0.27,-9.34,-1.41,2024-01-20 15:14:17.495
116,0.20,-9.30,-1.33,2024-01-20 15:14:17.562
173,0.27,-9.34,-1.41,2024-01-20 15:14:17.595
282,0.20,-9.34,-1.45,2024-01-20 15:14:17.628
208,0.20,-9.30,-1.37,2024-01-20 15:14:17.695
235,0.24,-9.38,-1.37,2024-01-20 15:14:17.729
134,0.20,-9.34,-1.41,2024-01-20 15:14:17.762
198,0.24,-9.41,-1.41,2024-01-20 15:14:17.795
247,0.24,-9.30,-1.37,2024-01-20 15:14:17.862
312,0.24,-9.34,-1.41,2024-01-20 15:14:17.894
301,0.27,-9.34,-1.41,2024-01-20 15:14:17.928
262,0.24,-9.34,-1.33,2024-01-20 15:14:17.994
179,0.20,-9.30,-1.33,2024-01-20 15:14:18.028
183,0.24,-9.38,-1.37,2024-01-20 15:14:18.061
231,0.24,-9.30,-1.37,2024-01-20 15:14:18.127
309,0.27,-9.34,-1.37,2024-01-20 15:14:18.161
396,0.24,-9.34,-1.37,2024-01-20 15:14:18.194
304,0.24,-9.34,-1.41,2024-01-20 15:14:18.261
316,0.24,-9.34,-1.37,2024-01-20 15:14:18.294
372,0.20,-9.34,-1.37,2024-01-20 15:14:18.328
409,0.31,-9.38,-1.33,2024-01-20 15:14:18.394
457,0.24,-9.34,-1.37,2024-01-20 15:14:18.427
416,0.20,-9.30,-1.33,2024-01-20 15:14:18.460
356,0.27,-9.30,-1.37,2024-01-20 15:14:18.494
357,0.24,-9.34,-1.41,2024-01-20 15:14:18.561
380,0.24,-9.34,-1.41,2024-01-20 15:14:18.594
427,0.20,-9.34,-1.41,2024-01-20 15:14:18.627
393,0.20,-9.38,-1.41,2024-01-20 15:14:18.693
661,0.27,-9.38,-1.45,2024-01-20 15:14:18.727
261,0.20,-9.30,-1.37,2024-01-20 15:14:18.760
357,0.27,-9.34,-1.37,2024-01-20 15:14:18.827
388,0.20,-9.34,-1.33,2024-01-20 15:14:18.860
438,0.24,-9.30,-1.37,2024-01-20 15:14:18.893
389,0.20,-9.34,-1.41,2024-01-20 15:14:18.959
320,0.27,-9.38,-1.41,2024-01-20 15:14:18.993
321,0.24,-9.34,-1.37,2024-01-20 15:14:19.027
360,0.20,-9.30,-1.41,2024-01-20 15:14:19.093
400,0.27,-9.34,-1.37,2024-01-20 15:14:19.126
397,0.24,-9.34,-1.45,2024-01-20 15:14:19.159
317,0.27,-9.34,-1.37,2024-01-20 15:14:19.193
312,0.24,-9.38,-1.37,2024-01-20 15:14:19.259
334,0.24,-9.30,-1.41,2024-01-20 15:14:19.293
373,0.24,-9.34,-1.37,2024-01-20 15:14:19.326
383,0.27,-9.38,-1.37,2024-01-20 15:14:19.392
330,0.20,-9.34,-1.33,2024-01-20 15:14:19.425
289,0.27,-9.34,-1.33,2024-01-20 15:14:19.459
314,0.16,-9.26,-1.41,2024-01-20 15:14:19.525
366,0.20,-9.34,-1.37,2024-01-20 15:14:19.559
393,0.27,-9.34,-1.37,2024-01-20 15:14:19.592
294,0.24,-9.38,-1.37,2024-01-20 15:14:19.659
268,0.24,-9.34,-1.37,2024-01-20 15:14:19.692
661,0.20,-9.38,-1.37,2024-01-20 15:14:19.725
301,0.27,-9.34,-1.37,2024-01-20 15:14:19.791
381,0.27,-9.30,-1.41,2024-01-20 15:14:19.825
390,0.27,-9.34,-1.41,2024-01-20 15:14:19.858
343,0.24,-9.34,-1.29,2024-01-20 15:14:19.892
309,0.24,-9.34,-1.41,2024-01-20 15:14:19.958
312,0.27,-9.38,-1.29,2024-01-20 15:14:19.992
345,0.27,-9.26,-1.37,2024-01-20 15:14:20.025
385,0.27,-9.34,-1.41,2024-01-20 15:14:20.091
346,0.27,-9.34,-1.45,2024-01-20 15:14:20.124
270,0.20,-9.30,-1.37,2024-01-20 15:14:20.157
284,0.24,-9.34,-1.37,2024-01-20 15:14:20.224
331,0.20,-9.34,-1.33,2024-01-20 15:14:20.257
359,0.24,-9.38,-1.37,2024-01-20 15:14:20.291
362,0.24,-9.38,-1.33,2024-01-20 15:14:20.356
286,0.24,-9.34,-1.37,2024-01-20 15:14:20.391
263,0.24,-9.34,-1.37,2024-01-20 15:14:20.424
304,0.24,-9.38,-1.41,2024-01-20 15:14:20.490
339,0.24,-9.34,-1.41,2024-01-20 15:14:20.523
381,0.24,-9.30,-1.37,2024-01-20 15:14:20.556
342,0.24,-9.30,-1.37,2024-01-20 15:14:20.590
267,0.24,-9.30,-1.37,2024-01-20 15:14:20.656
282,0.24,-9.34,-1.33,2024-01-20 15:14:20.690
327,0.24,-9.34,-1.41,2024-01-20 15:14:20.723
661,0.24,-9.34,-1.41,2024-01-20 15:14:20.790
333,0.24,-9.34,-1.41,2024-01-20 15:14:20.823
284,0.24,-9.34,-1.33,2024-01-20 15:14:20.857
284,0.20,-9.34,-1.37,2024-01-20 15:14:20.923
335,0.24,-9.34,-1.37,2024-01-20 15:14:20.955
365,0.20,-9.30,-1.41,2024-01-20 15:14:20.989
365,0.24,-9.34,-1.37,2024-01-20 15:14:21.055
319,0.24,-9.34,-1.41,2024-01-20 15:14:21.089
259,0.20,-9.30,-1.37,2024-01-20 15:14:21.123
296,0.27,-9.38,-1.37,2024-01-20 15:14:21.189
336,0.24,-9.38,-1.41,2024-01-20 15:14:21.222
368,0.24,-9.34,-1.37,2024-01-20 15:14:21.256
355,0.24,-9.38,-1.41,2024-01-20 15:14:21.288
265,0.24,-9.38,-1.37,2024-01-20 15:14:21.355
262,0.27,-9.34,-1.37,2024-01-20 15:14:21.388
314,0.24,-9.34,-1.37,2024-01-20 15:14:21.422
347,0.24,-9.38,-1.37,2024-01-20 15:14:21.488
370,0.27,-9.30,-1.33,2024-01-20 15:14:21.521
324,0.24,-9.34,-1.33,2024-01-20 15:14:21.555
275,0.20,-9.38,-1.41,2024-01-20 15:14:21.621
300,0.20,-9.34,-1.37,2024-01-20 15:14:21.655
333,0.24,-9.34,-1.33,2024-01-20 15:14:21.688
392,0.24,-9.34,-1.37,2024-01-20 15:14:21.755
72,0.20,-9.30,-1.29,2024-01-20 15:14:21.788
287,0.27,-9.30,-1.29,2024-01-20 15:14:21.822
276,0.27,-9.34,-1.37,2024-01-20 15:14:21.887
333,0.24,-9.30,-1.37,2024-01-20 15:14:21.921
377,0.24,-9.30,-1.37,2024-01-20 15:14:21.954
403,0.35,-9.26,-1.33,2024-01-20 15:14:21.987
322,0.20,-9.30,-1.37,2024-01-20 15:14:22.054
268,0.27,-9.26,-1.37,2024-01-20 15:14:22.087
300,0.31,-9.41,-1.37,2024-01-20 15:14:22.121
334,0.24,-9.30,-1.33,2024-01-20 15:14:22.187
374,0.27,-9.34,-1.37,2024-01-20 15:14:22.220
361,0.20,-9.38,-1.33,2024-01-20 15:14:22.254
272,0.27,-9.30,-1.41,2024-01-20 15:14:22.320
270,0.24,-9.41,-1.41,2024-01-20 15:14:22.354
315,0.24,-9.38,-1.41,2024-01-20 15:14:22.387
354,0.24,-9.30,-1.37,2024-01-20 15:14:22.453
401,0.35,-9.34,-1.37,2024-01-20 15:14:22.487
308,0.24,-9.41,-1.41,2024-01-20 15:14:22.519
269,0.24,-9.30,-1.41,2024-01-20 15:14:22.586
309,0.24,-9.34,-1.37,2024-01-20 15:14:22.619
661,0.27,-9.30,-1.37,2024-01-20 15:14:22.653
337,0.31,-9.30,-1.37,2024-01-20 15:14:22.686
370,0.27,-9.38,-1.41,2024-01-20 15:14:22.753
301,0.24,-9.34,-1.37,2024-01-20 15:14:22.786
316,0.20,-9.34,-1.41,2024-01-20 15:14:22.819
357,0.27,-9.34,-1.41,2024-01-20 15:14:22.885
369,0.24,-9.30,-1.37,2024-01-20 15:14:22.919
391,0.24,-9.30,-1.33,2024-01-20 15:14:22.952
301,0.27,-9.30,-1.37,2024-01-20 15:14:23.019
277,0.24,-9.34,-1.37,2024-01-20 15:14:23.053
310,0.24,-9.30,-1.37,2024-01-20 15:14:23.086
352,0.24,-9.34,-1.33,2024-01-20 15:14:23.152
385,0.24,-9.30,-1.33,2024-01-20 15:14:23.186
334,0.24,-9.38,-1.45,2024-01-20 15:14:23.219
274,0.27,-9.34,-1.37,2024-01-20 15:14:23.285
297,0.24,-9.22,-1.41,2024-01-20 15:14:23.318
342,0.20,-9.22,-1.37,2024-01-20 15:14:23.351
373,0.20,-9.45,-1.33,2024-01-20 15:14:23.385
378,0.20,-9.30,-1.37,2024-01-20 15:14:23.451
304,0.27,-9.26,-1.37,2024-01-20 15:14:23.485
661,0.31,-9.22,-1.33,2024-01-20 15:14:23.519
312,0.24,-9.10,-1.37,2024-01-20 15:14:23.584
365,0.24,-9.18,-1.41,2024-01-20 15:14:23.618
397,0.24,-9.30,-1.33,2024-01-20 15:14:23.651
358,0.24,-9.34,-1.37,2024-01-20 15:14:23.718
297,0.24,-9.34,-1.37,2024-01-20 15:14:23.751
295,0.24,-9.38,-1.33,2024-01-20 15:14:23.784
337,0.31,-9.34,-1.37,2024-01-20 15:14:23.850
378,0.24,-9.34,-1.33,2024-01-20 15:14:23.884
367,0.31,-9.34,-1.41,2024-01-20 15:14:23.917
284,0.24,-9.34,-1.41,2024-01-20 15:14:23.984
274,0.27,-9.38,-1.29,2024-01-20 15:14:24.017
315,0.20,-9.38,-1.37,2024-01-20 15:14:24.050
350,0.24,-9.38,-1.33,2024-01-20 15:14:24.084
373,0.20,-9.22,-1.33,2024-01-20 15:14:24.150
317,0.24,-9.14,-1.33,2024-01-20 15:14:24.183
296,0.24,-9.45,-1.37,2024-01-20 15:14:24.217
287,0.20,-9.34,-1.33,2024-01-20 15:14:24.283
329,0.20,-9.34,-1.33,2024-01-20 15:14:24.316
370,0.27,-9.38,-1.37,2024-01-20 15:14:24.350
596,0.24,-9.38,-1.29,2024-01-20 15:14:24.416
86,0.24,-9.34,-1.33,2024-01-20 15:14:24.450
266,0.20,-9.26,-1.37,2024-01-20 15:14:24.483
315,0.24,-9.34,-1.37,2024-01-20 15:14:24.549
355,0.24,-9.34,-1.33,2024-01-20 15:14:24.582
396,0.24,-9.30,-1.33,2024-01-20 15:14:24.616
319,0.24,-9.34,-1.37,2024-01-20 15:14:24.650
271,0.24,-9.34,-1.33,2024-01-20 15:14:24.715
284,0.24,-9.38,-1.37,2024-01-20 15:14:24.748
331,0.20,-9.34,-1.33,2024-01-20 15:14:24.783
363,0.27,-9.30,-1.33,2024-01-20 15:14:24.848
365,0.24,-9.30,-1.33,2024-01-20 15:14:24.882
290,0.20,-9.34,-1.41,2024-01-20 15:14:24.915
270,0.24,-9.38,-1.29,2024-01-20 15:14:24.982
306,0.27,-9.41,-1.33,2024-01-20 15:14:25.015
343,0.31,-9.38,-1.37,2024-01-20 15:14:25.048
374,0.20,-9.30,-1.37,2024-01-20 15:14:25.115
329,0.20,-9.18,-1.37,2024-01-20 15:14:25.148
276,0.27,-9.26,-1.37,2024-01-20 15:14:25.181
287,0.27,-9.30,-1.37,2024-01-20 15:14:25.248
326,0.24,-9.34,-1.41,2024-01-20 15:14:25.281
363,0.24,-9.34,-1.37,2024-01-20 15:14:25.314
614,0.24,-9.34,-1.37,2024-01-20 15:14:25.348
271,0.24,-9.30,-1.37,2024-01-20 15:14:25.414
285,0.27,-9.38,-1.41,2024-01-20 15:14:25.448
333,0.24,-9.38,-1.41,2024-01-20 15:14:25.481
385,0.24,-9.34,-1.41,2024-01-20 15:14:25.547
387,0.20,-9.34,-1.37,2024-01-20 15:14:25.581
292,0.24,-9.38,-1.33,2024-01-20 15:14:25.614
272,0.20,-9.26,-1.33,2024-01-20 15:14:25.681
310,0.24,-9.30,-1.33,2024-01-20 15:14:25.714
344,0.20,-9.34,-1.37,2024-01-20 15:14:25.747
388,0.24,-9.26,-1.33,2024-01-20 15:14:25.813
358,0.24,-9.34,-1.33,2024-01-20 15:14:25.847
268,0.27,-9.34,-1.37,2024-01-20 15:14:25.880
289,0.27,-9.34,-1.37,2024-01-20 15:14:25.946
324,0.20,-9.34,-1.37,2024-01-20 15:14:25.980
364,0.24,-9.34,-1.41,2024-01-20 15:14:26.013
398,0.24,-9.34,-1.45,2024-01-20 15:14:26.047
315,0.24,-9.34,-1.33,2024-01-20 15:14:26.113
268,0.24,-9.34,-1.37,2024-01-20 15:14:26.147
298,0.24,-9.34,-1.33,2024-01-20 15:14:26.180
332,0.24,-9.34,-1.37,2024-01-20 15:14:26.246
294,0.24,-9.34,-1.33,2024-01-20 15:14:26.279
347,0.24,-9.34,-1.37,2024-01-20 15:14:26.313
284,0.24,-9.34,-1.33,2024-01-20 15:14:26.379
309,0.24,-9.34,-1.37,2024-01-20 15:14:26.412
366,0.24,-9.30,-1.37,2024-01-20 15:14:26.446
385,0.27,-9.34,-1.45,2024-01-20 15:14:26.513
379,0.24,-9.34,-1.33,2024-01-20 15:14:26.545
313,0.24,-9.34,-1.37,2024-01-20 15:14:26.579
285,0.24,-9.34,-1.37,2024-01-20 15:14:26.645
323,0.31,-9.38,-1.41,2024-01-20 15:14:26.679
357,0.24,-9.34,-1.37,2024-01-20 15:14:26.712
391,0.20,-9.30,-1.37,2024-01-20 15:14:26.746
334,0.27,-9.38,-1.37,2024-01-20 15:14:26.812
273,0.24,-9.26,-1.41,2024-01-20 15:14:26.845
295,0.24,-9.34,-1.37,2024-01-20 15:14:26.879
341,0.31,-9.14,-1.37,2024-01-20 15:14:26.945
381,0.24,-9.14,-1.29,2024-01-20 15:14:26.978
389,0.27,-9.53,-1.37,2024-01-20 15:14:27.012
282,0.24,-9.06,-1.45,2024-01-20 15:14:27.078
266,0.27,-9.18,-1.26,2024-01-20 15:14:27.112
314,0.20,-9.45,-1.37,2024-01-20 15:14:27.145
662,0.31,-9.26,-1.37,2024-01-20 15:14:27.211
370,0.35,-9.30,-1.37,2024-01-20 15:14:27.244
322,0.24,-9.34,-1.37,2024-01-20 15:14:27.278
285,0.27,-9.38,-1.37,2024-01-20 15:14:27.345
317,0.31,-9.65,-1.41,2024-01-20 15:14:27.378
350,0.24,-8.83,-1.33,2024-01-20 15:14:27.411
361,0.24,-9.34,-1.41,2024-01-20 15:14:27.445
363,0.20,-9.34,-1.37,2024-01-20 15:14:27.510
282,0.20,-9.34,-1.37,2024-01-20 15:14:27.544
277,0.20,-9.30,-1.37,2024-01-20 15:14:27.577
319,0.24,-9.14,-1.33,2024-01-20 15:14:27.644
353,0.27,-9.38,-1.37,2024-01-20 15:14:27.677
371,0.20,-9.34,-1.41,2024-01-20 15:14:27.710
304,0.24,-9.30,-1.33,2024-01-20 15:14:27.777
269,0.24,-9.34,-1.37,2024-01-20 15:14:27.811
305,0.24,-9.34,-1.37,2024-01-20 15:14:27.844
338,0.20,-9.34,-1.33,2024-01-20 15:14:27.909
378,0.24,-9.34,-1.37,2024-01-20 15:14:27.943
347,0.24,-9.30,-1.37,2024-01-20 15:14:27.976
305,0.20,-9.30,-1.41,2024-01-20 15:14:28.043
282,0.20,-9.34,-1.33,2024-01-20 15:14:28.076
325,0.24,-9.34,-1.37,2024-01-20 15:14:28.110
361,0.24,-9.34,-1.41,2024-01-20 15:14:28.143
399,0.24,-9.34,-1.41,2024-01-20 15:14:28.210
9,0.24,-9.30,-1.33,2024-01-20 15:14:28.243
274,0.24,-9.34,-1.33,2024-01-20 15:14:28.276
293,0.27,-9.34,-1.33,2024-01-20 15:14:28.343
344,0.24,-9.34,-1.33,2024-01-20 15:14:28.376
383,0.24,-9.30,-1.37,2024-01-20 15:14:28.409
372,0.24,-9.30,-1.37,2024-01-20 15:14:28.476
292,0.24,-9.34,-1.37,2024-01-20 15:14:28.509
281,0.24,-9.34,-1.33,2024-01-20 15:14:28.542
308,0.24,-9.38,-1.33,2024-01-20 15:14:28.609
350,0.24,-9.34,-1.29,2024-01-20 15:14:28.641
384,0.24,-9.34,-1.41,2024-01-20 15:14:28.675
346,0.27,-9.38,-1.37,2024-01-20 15:14:28.709
258,0.20,-9.30,-1.37,2024-01-20 15:14:28.775
284,0.24,-9.38,-1.37,2024-01-20 15:14:28.809
329,0.24,-9.34,-1.33,2024-01-20 15:14:28.842
369,0.20,-9.30,-1.41,2024-01-20 15:14:28.908
378,0.24,-9.18,-1.41,2024-01-20 15:14:28.941
294,0.27,-9.18,-1.33,2024-01-20 15:14:28.974
287,0.31,-9.53,-1.37,2024-01-20 15:14:29.041
326,0.27,-9.30,-1.33,2024-01-20 15:14:29.074
348,0.31,-9.41,-1.37,2024-01-20 15:14:29.108
383,0.20,-9.38,-1.37,2024-01-20 15:14:29.174
331,0.27,-9.30,-1.37,2024-01-20 15:14:29.208
660,0.27,-9.34,-1.37,2024-01-20 15:14:29.241
213,0.24,-9.26,-1.26,2024-01-20 15:14:29.308
332,0.24,-9.38,-1.37,2024-01-20 15:14:29.340
378,0.27,-9.30,-1.33,2024-01-20 15:14:29.374
388,0.27,-9.45,-1.41,2024-01-20 15:14:29.407
298,0.27,-9.06,-1.29,2024-01-20 15:14:29.474
256,0.31,-9.22,-1.33,2024-01-20 15:14:29.507
325,0.24,-9.14,-1.33,2024-01-20 15:14:29.541
346,0.27,-9.34,-1.33,2024-01-20 15:14:29.607
381,0.27,-9.41,-1.37,2024-01-20 15:14:29.640
325,0.27,-9.38,-1.41,2024-01-20 15:14:29.674
269,0.24,-9.26,-1.33,2024-01-20 15:14:29.740
295,0.24,-9.30,-1.33,2024-01-20 15:14:29.773
339,0.24,-9.30,-1.41,2024-01-20 15:14:29.807
378,0.24,-9.22,-1.33,2024-01-20 15:14:29.873
355,0.20,-9.34,-1.37,2024-01-20 15:14:29.906
284,0.24,-9.18,-1.26,2024-01-20 15:14:29.940
290,0.20,-9.22,-1.29,2024-01-20 15:14:30.005
337,0.27,-9.30,-1.29,2024-01-20 15:14:30.040
362,0.35,-9.30,-1.37,2024-01-20 15:14:30.073
384,0.27,-9.30,-1.37,2024-01-20 15:14:30.106
314,0.24,-9.30,-1.33,2024-01-20 15:14:30.173
660,0.20,-9.34,-1.33,2024-01-20 15:14:30.206
216,0.24,-8.94,-1.37,2024-01-20 15:14:30.239
356,0.27,-9.49,-1.29,2024-01-20 15:14:30.306
396,0.27,-9.38,-1.29,2024-01-20 15:14:30.339
373,0.24,-9.49,-1.41,2024-01-20 15:14:30.372
302,0.24,-9.34,-1.37,2024-01-20 15:14:30.439
290,0.20,-9.34,-1.33,2024-01-20 15:14:30.472
341,0.24,-8.87,-1.33,2024-01-20 15:14:30.505
364,0.24,-9.38,-1.37,2024-01-20 15:14:30.572
381,0.24,-9.34,-1.45,2024-01-20 15:14:30.605
305,0.24,-9.26,-1.37,2024-01-20 15:14:30.638
269,0.24,-9.30,-1.33,2024-01-20 15:14:30.705
302,0.24,-9.30,-1.41,2024-01-20 15:14:30.738
338,0.20,-9.34,-1.37,2024-01-20 15:14:30.772
376,0.24,-9.38,-1.33,2024-01-20 15:14:30.805
340,0.27,-9.34,-1.41,2024-01-20 15:14:30.872
263,0.24,-9.26,-1.37,2024-01-20 15:14:30.905
287,0.24,-9.30,-1.41,2024-01-20 15:14:30.938
345,0.27,-9.38,-1.37,2024-01-20 15:14:31.004
383,0.20,-9.38,-1.37,2024-01-20 15:14:31.038
369,0.20,-9.34,-1.37,2024-01-20 15:14:31.071
284,0.24,-8.75,-1.37,2024-01-20 15:14:31.137
277,0.31,-9.38,-1.37,2024-01-20 15:14:31.171
661,0.24,-9.22,-1.37,2024-01-20 15:14:31.204
342,0.24,-9.30,-1.37,2024-01-20 15:14:31.270
386,0.20,-9.34,-1.33,2024-01-20 15:14:31.304
342,0.31,-9.57,-1.26,2024-01-20 15:14:31.337
290,0.27,-9.41,-1.41,2024-01-20 15:14:31.404
305,0.31,-9.38,-1.41,2024-01-20 15:14:31.437
323,0.20,-9.30,-1.33,2024-01-20 15:14:31.471
384,0.24,-9.34,-1.33,2024-01-20 15:14:31.504
366,0.24,-9.34,-1.29,2024-01-20 15:14:31.569
277,0.20,-9.34,-1.37,2024-01-20 15:14:31.603
279,0.27,-9.22,-1.29,2024-01-20 15:14:31.637
318,0.27,-9.38,-1.41,2024-01-20 15:14:31.703
351,0.31,-9.22,-1.37,2024-01-20 15:14:31.736
378,0.31,-9.41,-1.41,2024-01-20 15:14:31.770
321,0.27,-9.34,-1.33,2024-01-20 15:14:31.836
272,0.24,-9.38,-1.33,2024-01-20 15:14:31.869
299,0.27,-9.38,-1.41,2024-01-20 15:14:31.903
341,0.24,-9.18,-1.33,2024-01-20 15:14:31.969
383,0.20,-9.38,-1.33,2024-01-20 15:14:32.002
383,0.20,-9.26,-1.41,2024-01-20 15:14:32.036
277,0.27,-9.38,-1.37,2024-01-20 15:14:32.102
279,0.31,-9.22,-1.37,2024-01-20 15:14:32.135
320,0.27,-9.53,-1.45,2024-01-20 15:14:32.168
589,0.20,-9.34,-1.37,2024-01-20 15:14:32.202
181,0.20,-9.38,-1.37,2024-01-20 15:14:32.269
299,0.24,-9.41,-1.37,2024-01-20 15:14:32.302
273,0.24,-9.34,-1.37,2024-01-20 15:14:32.336
324,0.24,-9.38,-1.37,2024-01-20 15:14:32.402
370,0.20,-9.34,-1.33,2024-01-20 15:14:32.435
375,0.24,-9.30,-1.41,2024-01-20 15:14:32.468
351,0.27,-9.34,-1.37,2024-01-20 15:14:32.535
265,0.24,-9.38,-1.37,2024-01-20 15:14:32.568
276,0.27,-9.38,-1.45,2024-01-20 15:14:32.602
329,0.24,-9.45,-1.29,2024-01-20 15:14:32.668
365,0.27,-9.34,-1.33,2024-01-20 15:14:32.701
372,0.27,-9.41,-1.41,2024-01-20 15:14:32.735
294,0.20,-9.30,-1.29,2024-01-20 15:14:32.801
266,0.27,-9.45,-1.41,2024-01-20 15:14:32.834
302,0.24,-9.26,-1.37,2024-01-20 15:14:32.868
341,0.16,-9.30,-1.37,2024-01-20 15:14:32.901
384,0.27,-9.38,-1.37,2024-01-20 15:14:32.967
356,0.24,-9.38,-1.41,2024-01-20 15:14:33.001
290,0.31,-9.30,-1.33,2024-01-20 15:14:33.034
285,0.31,-9.73,-1.41,2024-01-20 15:14:33.100
328,0.27,-9.26,-1.37,2024-01-20 15:14:33.133
371,0.27,-9.49,-1.41,2024-01-20 15:14:33.167
661,0.24,-9.34,-1.33,2024-01-20 15:14:33.233
279,0.24,-9.30,-1.33,2024-01-20 15:14:33.267
270,0.24,-9.34,-1.33,2024-01-20 15:14:33.300
328,0.27,-9.34,-1.33,2024-01-20 15:14:33.366
373,0.20,-9.38,-1.37,2024-01-20 15:14:33.400
408,0.27,-9.41,-1.41,2024-01-20 15:14:33.433
332,0.24,-9.34,-1.41,2024-01-20 15:14:33.500
295,0.27,-9.38,-1.33,2024-01-20 15:14:33.533
303,0.20,-9.30,-1.41,2024-01-20 15:14:33.566
343,0.27,-9.30,-1.41,2024-01-20 15:14:33.599
379,0.27,-9.22,-1.33,2024-01-20 15:14:33.666
368,0.24,-9.45,-1.37,2024-01-20 15:14:33.700
289,0.20,-9.34,-1.41,2024-01-20 15:14:33.733
273,0.24,-9.34,-1.41,2024-01-20 15:14:33.799
317,0.20,-9.34,-1.33,2024-01-20 15:14:33.833
352,0.27,-9.34,-1.41,2024-01-20 15:14:33.866
386,0.20,-9.34,-1.37,2024-01-20 15:14:33.933
316,0.20,-9.38,-1.33,2024-01-20 15:14:33.966
267,0.24,-9.22,-1.41,2024-01-20 15:14:33.999
321,0.24,-9.26,-1.33,2024-01-20 15:14:34.066
345,0.27,-9.26,-1.41,2024-01-20 15:14:34.098
370,0.24,-9.34,-1.37,2024-01-20 15:14:34.132
347,0.20,-9.30,-1.37,2024-01-20 15:14:34.198
261,0.24,-9.34,-1.41,2024-01-20 15:14:34.232
287,0.24,-9.38,-1.33,2024-01-20 15:14:34.265
318,0.20,-9.26,-1.37,2024-01-20 15:14:34.299
358,0.24,-9.38,-1.37,2024-01-20 15:14:34.364
389,0.24,-9.34,-1.37,2024-01-20 15:14:34.398
334,0.24,-9.34,-1.37,2024-01-20 15:14:34.431
280,0.24,-9.30,-1.37,2024-01-20 15:14:34.498
294,0.20,-9.45,-1.41,2024-01-20 15:14:34.531
350,0.27,-9.34,-1.37,2024-01-20 15:14:34.565
375,0.24,-9.34,-1.37,2024-01-20 15:14:34.631
353,0.24,-9.34,-1.41,2024-01-20 15:14:34.664
279,0.31,-9.85,-1.37,2024-01-20 15:14:34.698
295,0.20,-9.65,-1.33,2024-01-20 15:14:34.764
317,0.20,-9.41,-1.45,2024-01-20 15:14:34.797
348,0.24,-9.22,-1.37,2024-01-20 15:14:34.831
365,0.20,-9.30,-1.33,2024-01-20 15:14:34.897
289,0.20,-9.30,-1.37,2024-01-20 15:14:34.931
258,0.24,-9.38,-1.33,2024-01-20 15:14:34.964
300,0.24,-9.34,-1.37,2024-01-20 15:14:34.998
340,0.20,-9.06,-1.37,2024-01-20 15:14:35.064
389,0.27,-9.22,-1.41,2024-01-20 15:14:35.097
344,0.24,-9.34,-1.37,2024-01-20 15:14:35.130
262,0.24,-9.34,-1.37,2024-01-20 15:14:35.196
288,0.24,-9.22,-1.33,2024-01-20 15:14:35.230
330,0.24,-9.30,-1.37,2024-01-20 15:14:35.264
661,0.27,-9.41,-1.37,2024-01-20 15:14:35.330
350,0.27,-9.38,-1.37,2024-01-20 15:14:35.363
291,0.27,-9.06,-1.37,2024-01-20 15:14:35.397
289,0.24,-9.10,-1.26,2024-01-20 15:14:35.463
341,0.27,-9.22,-1.37,2024-01-20 15:14:35.496
371,0.20,-9.34,-1.45,2024-01-20 15:14:35.530
381,0.24,-9.34,-1.41,2024-01-20 15:14:35.596
345,0.24,-9.10,-1.29,2024-01-20 15:14:35.629
270,0.24,-9.34,-1.41,2024-01-20 15:14:35.663
301,0.27,-9.38,-1.37,2024-01-20 15:14:35.696
346,0.24,-9.34,-1.37,2024-01-20 15:14:35.762
378,0.24,-9.34,-1.37,2024-01-20 15:14:35.796
363,0.24,-9.26,-1.37,2024-01-20 15:14:35.829
282,0.20,-9.30,-1.33,2024-01-20 15:14:35.896
276,0.24,-9.30,-1.37,2024-01-20 15:14:35.929
320,0.24,-9.34,-1.37,2024-01-20 15:14:35.962
355,0.24,-9.34,-1.37,2024-01-20 15:14:36.029
386,0.20,-9.34,-1.33,2024-01-20 15:14:36.061
336,0.24,-9.34,-1.37,2024-01-20 15:14:36.095
284,0.24,-9.61,-1.45,2024-01-20 15:14:36.162
298,0.24,-9.34,-1.37,2024-01-20 15:14:36.195
336,0.24,-9.30,-1.37,2024-01-20 15:14:36.229
380,0.20,-9.34,-1.33,2024-01-20 15:14:36.294
661,0.27,-9.34,-1.26,2024-01-20 15:14:36.328
266,0.24,-9.22,-1.41,2024-01-20 15:14:36.361
287,0.27,-9.38,-1.37,2024-01-20 15:14:36.395
337,0.24,-9.30,-1.33,2024-01-20 15:14:36.461
385,0.24,-9.45,-1.41,2024-01-20 15:14:36.494
404,0.24,-8.90,-1.41,2024-01-20 15:14:36.528
307,0.24,-9.45,-1.37,2024-01-20 15:14:36.594
280,0.20,-9.34,-1.41,2024-01-20 15:14:36.628
304,0.24,-9.34,-1.33,2024-01-20 15:14:36.661
346,0.27,-9.38,-1.45,2024-01-20 15:14:36.727
381,0.24,-9.26,-1.37,2024-01-20 15:14:36.761
353,0.27,-9.34,-1.41,2024-01-20 15:14:36.794
266,0.20,-9.26,-1.37,2024-01-20 15:14:36.860
276,0.27,-9.26,-1.41,2024-01-20 15:14:36.894
321,0.20,-9.30,-1.37,2024-01-20 15:14:36.927
356,0.20,-9.30,-1.37,2024-01-20 15:14:36.993
374,0.24,-9.30,-1.41,2024-01-20 15:14:37.027
300,0.20,-9.26,-1.33,2024-01-20 15:14:37.060
276,0.27,-9.26,-1.37,2024-01-20 15:14:37.093
336,0.27,-9.38,-1.37,2024-01-20 15:14:37.160
346,0.24,-9.30,-1.41,2024-01-20 15:14:37.193
383,0.27,-9.02,-1.29,2024-01-20 15:14:37.226
346,0.27,-9.22,-1.29,2024-01-20 15:14:37.293
404,0.24,-9.30,-1.29,2024-01-20 15:14:37.326
30,0.24,-9.22,-1.29,2024-01-20 15:14:37.360
316,0.24,-9.49,-1.49,2024-01-20 15:14:37.426
361,0.24,-9.34,-1.37,2024-01-20 15:14:37.459
406,0.27,-9.34,-1.37,2024-01-20 15:14:37.492
344,0.24,-9.34,-1.29,2024-01-20 15:14:37.558
277,0.27,-9.38,-1.33,2024-01-20 15:14:37.592
303,0.24,-9.34,-1.41,2024-01-20 15:14:37.626
346,0.24,-9.34,-1.41,2024-01-20 15:14:37.692
380,0.27,-9.38,-1.41,2024-01-20 15:14:37.726
365,0.27,-9.34,-1.37,2024-01-20 15:14:37.758
281,0.24,-9.34,-1.41,2024-01-20 15:14:37.792
282,0.20,-9.34,-1.37,2024-01-20 15:14:37.859
320,0.20,-9.34,-1.33,2024-01-20 15:14:37.892
358,0.20,-9.38,-1.33,2024-01-20 15:14:37.925
376,0.24,-9.34,-1.37,2024-01-20 15:14:37.991
311,0.27,-9.30,-1.37,2024-01-20 15:14:38.025
274,0.20,-9.30,-1.33,2024-01-20 15:14:38.058
300,0.24,-9.38,-1.41,2024-01-20 15:14:38.124
378,0.24,-9.38,-1.37,2024-01-20 15:14:38.158
380,0.24,-9.34,-1.41,2024-01-20 15:14:38.191
339,0.27,-9.38,-1.45,2024-01-20 15:14:38.257
268,0.24,-9.38,-1.41,2024-01-20 15:14:38.291
335,0.24,-9.30,-1.37,2024-01-20 15:14:38.325
33,0.24,-9.34,-1.26,2024-01-20 15:14:38.357
356,0.20,-9.38,-1.37,2024-01-20 15:14:38.424
397,0.20,-9.30,-1.37,2024-01-20 15:14:38.458
346,0.24,-9.34,-1.37,2024-01-20 15:14:38.491
297,0.24,-9.30,-1.37,2024-01-20 15:14:38.557
305,0.20,-9.30,-1.41,2024-01-20 15:14:38.590
342,0.16,-9.38,-1.33,2024-01-20 15:14:38.624
388,0.27,-9.34,-1.41,2024-01-20 15:14:38.690
364,0.27,-9.38,-1.37,2024-01-20 15:14:38.724
284,0.24,-9.34,-1.37,2024-01-20 15:14:38.756
283,0.27,-9.34,-1.41,2024-01-20 15:14:38.823
319,0.24,-9.38,-1.41,2024-01-20 15:14:38.857
357,0.20,-9.30,-1.37,2024-01-20 15:14:38.889
380,0.27,-9.34,-1.37,2024-01-20 15:14:38.956
312,0.20,-9.38,-1.33,2024-01-20 15:14:38.990
263,0.24,-9.34,-1.45,2024-01-20 15:14:39.024
303,0.24,-9.30,-1.41,2024-01-20 15:14:39.056
347,0.24,-9.30,-1.37,2024-01-20 15:14:39.123
381,0.20,-9.14,-1.37,2024-01-20 15:14:39.157
388,0.24,-9.38,-1.37,2024-01-20 15:14:39.190
276,0.35,-9.38,-1.37,2024-01-20 15:14:39.256
277,0.20,-9.34,-1.37,2024-01-20 15:14:39.290
322,0.27,-9.26,-1.41,2024-01-20 15:14:39.323
405,0.24,-9.38,-1.29,2024-01-20 15:14:39.389
72,0.27,-9.34,-1.33,2024-01-20 15:14:39.422
325,0.24,-9.26,-1.37,2024-01-20 15:14:39.457
268,0.27,-9.30,-1.41,2024-01-20 15:14:39.521
309,0.20,-9.30,-1.37,2024-01-20 15:14:39.555
362,0.20,-9.30,-1.37,2024-01-20 15:14:39.588
378,0.31,-9.45,-1.41,2024-01-20 15:14:39.655
362,0.24,-9.26,-1.33,2024-01-20 15:14:39.688
292,0.24,-9.26,-1.33,2024-01-20 15:14:39.722
276,0.24,-9.30,-1.29,2024-01-20 15:14:39.755
317,0.24,-9.34,-1.37,2024-01-20 15:14:39.821
352,0.27,-9.34,-1.37,2024-01-20 15:14:39.854
380,0.20,-9.26,-1.37,2024-01-20 15:14:39.888
315,0.20,-9.34,-1.41,2024-01-20 15:14:39.954
261,0.20,-9.22,-1.41,2024-01-20 15:14:39.988
298,0.27,-9.26,-1.33,2024-01-20 15:14:40.021
337,0.27,-9.38,-1.41,2024-01-20 15:14:40.088
378,0.24,-9.38,-1.37,2024-01-20 15:14:40.121
360,0.27,-9.45,-1.37,2024-01-20 15:14:40.155
274,0.27,-9.34,-1.37,2024-01-20 15:14:40.221
284,0.24,-9.34,-1.37,2024-01-20 15:14:40.254
348,0.24,-9.34,-1.45,2024-01-20 15:14:40.288
358,0.24,-9.34,-1.37,2024-01-20 15:14:40.354
384,0.24,-9.34,-1.33,2024-01-20 15:14:40.387
309,0.27,-9.34,-1.37,2024-01-20 15:14:40.421
520,0.24,-9.26,-1.37,2024-01-20 15:14:40.454
130,0.24,-9.38,-1.37,2024-01-20 15:14:40.520
350,0.24,-9.41,-1.37,2024-01-20 15:14:40.554
397,0.24,-9.30,-1.41,2024-01-20 15:14:40.587
373,0.24,-9.26,-1.41,2024-01-20 15:14:40.653
316,0.35,-9.26,-1.33,2024-01-20 15:14:40.687
294,0.27,-9.26,-1.33,2024-01-20 15:14:40.720
334,0.27,-9.38,-1.33,2024-01-20 15:14:40.786
367,0.24,-9.06,-1.29,2024-01-20 15:14:40.820
373,0.20,-9.34,-1.45,2024-01-20 15:14:40.853
294,0.27,-9.34,-1.37,2024-01-20 15:14:40.919
271,0.24,-9.38,-1.33,2024-01-20 15:14:40.953
299,0.31,-9.26,-1.41,2024-01-20 15:14:40.986
335,0.35,-9.22,-1.29,2024-01-20 15:14:41.052
368,0.24,-9.34,-1.41,2024-01-20 15:14:41.086
346,0.20,-9.30,-1.37,2024-01-20 15:14:41.119
271,0.24,-9.34,-1.41,2024-01-20 15:14:41.153
288,0.24,-9.34,-1.37,2024-01-20 15:14:41.219
334,0.20,-9.38,-1.37,2024-01-20 15:14:41.252
375,0.24,-9.30,-1.37,2024-01-20 15:14:41.286
391,0.24,-9.10,-1.37,2024-01-20 15:14:41.352
297,0.24,-9.30,-1.29,2024-01-20 15:14:41.386
273,0.20,-9.30,-1.37,2024-01-20 15:14:41.418
316,0.27,-9.06,-1.29,2024-01-20 15:14:41.486
661,0.27,-9.41,-1.45,2024-01-20 15:14:41.519
330,0.20,-9.30,-1.37,2024-01-20 15:14:41.552
342,0.20,-9.38,-1.37,2024-01-20 15:14:41.618
278,0.24,-9.34,-1.37,2024-01-20 15:14:41.652
318,0.24,-9.34,-1.41,2024-01-20 15:14:41.684
362,0.24,-9.38,-1.37,2024-01-20 15:14:41.752
368,0.31,-9.30,-1.37,2024-01-20 15:14:41.784
381,0.20,-9.26,-1.37,2024-01-20 15:14:41.818
294,0.20,-9.30,-1.37,2024-01-20 15:14:41.852
268,0.20,-9.30,-1.37,2024-01-20 15:14:41.918
318,0.24,-9.34,-1.41,2024-01-20 15:14:41.951
358,0.24,-9.34,-1.41,2024-01-20 15:14:41.985
371,0.27,-9.38,-1.33,2024-01-20 15:14:42.050
320,0.27,-9.38,-1.41,2024-01-20 15:14:42.084
262,0.24,-9.34,-1.33,2024-01-20 15:14:42.117
244,0.20,-9.38,-1.37,2024-01-20 15:14:42.184
345,0.24,-9.34,-1.33,2024-01-20 15:14:42.217
371,0.24,-9.34,-1.37,2024-01-20 15:14:42.251
365,0.20,-9.38,-1.41,2024-01-20 15:14:42.316
293,0.24,-9.30,-1.33,2024-01-20 15:14:42.350
223,0.24,-9.34,-1.33,2024-01-20 15:14:42.384
322,0.24,-9.34,-1.41,2024-01-20 15:14:42.450
381,0.24,-9.34,-1.41,2024-01-20 15:14:42.484
661,0.20,-9.30,-1.33,2024-01-20 15:14:42.517
248,0.24,-9.34,-1.37,2024-01-20 15:14:42.551
285,0.24,-9.34,-1.37,2024-01-20 15:14:42.616
325,0.24,-9.38,-1.41,2024-01-20 15:14:42.650
304,0.27,-9.38,-1.41,2024-01-20 15:14:42.683
431,0.20,-9.38,-1.41,2024-01-20 15:14:42.750
371,0.24,-9.38,-1.41,2024-01-20 15:14:42.783
285,0.24,-9.30,-1.37,2024-01-20 15:14:42.817
350,0.24,-9.34,-1.41,2024-01-20 15:14:42.883
343,0.24,-9.38,-1.41,2024-01-20 15:14:42.915
357,0.24,-9.30,-1.33,2024-01-20 15:14:42.950
409,0.24,-9.45,-1.41,2024-01-20 15:14:43.015
386,0.24,-9.30,-1.33,2024-01-20 15:14:43.049
282,0.24,-9.34,-1.41,2024-01-20 15:14:43.082
335,0.24,-9.34,-1.37,2024-01-20 15:14:43.148
334,0.24,-9.34,-1.37,2024-01-20 15:14:43.182
323,0.24,-9.26,-1.41,2024-01-20 15:14:43.215
365,0.24,-9.34,-1.37,2024-01-20 15:14:43.249
297,0.27,-9.34,-1.33,2024-01-20 15:14:43.315
310,0.24,-9.38,-1.37,2024-01-20 15:14:43.349
326,0.20,-9.30,-1.37,2024-01-20 15:14:43.382
358,0.27,-9.34,-1.37,2024-01-20 15:14:43.448
660,0.20,-9.26,-1.37,2024-01-20 15:14:43.482
291,0.24,-9.26,-1.37,2024-01-20 15:14:43.514
270,0.20,-9.34,-1.41,2024-01-20 15:14:43.582
300,0.20,-9.30,-1.41,2024-01-20 15:14:43.615
358,0.20,-9.34,-1.41,2024-01-20 15:14:43.648
391,0.24,-9.34,-1.33,2024-01-20 15:14:43.714
327,0.20,-9.34,-1.29,2024-01-20 15:14:43.747
254,0.24,-9.34,-1.37,2024-01-20 15:14:43.781
277,0.24,-9.38,-1.37,2024-01-20 15:14:43.847
333,0.24,-9.34,-1.41,2024-01-20 15:14:43.881
355,0.24,-9.30,-1.33,2024-01-20 15:14:43.914
354,0.24,-9.34,-1.37,2024-01-20 15:14:43.948
297,0.27,-9.34,-1.41,2024-01-20 15:14:44.014
255,0.24,-9.34,-1.37,2024-01-20 15:14:44.047
293,0.24,-9.30,-1.41,2024-01-20 15:14:44.080
341,0.24,-9.38,-1.37,2024-01-20 15:14:44.147
402,0.27,-9.30,-1.41,2024-01-20 15:14:44.181
323,0.24,-9.30,-1.33,2024-01-20 15:14:44.213
252,0.24,-9.38,-1.37,2024-01-20 15:14:44.280
284,0.20,-9.34,-1.41,2024-01-20 15:14:44.313
489,0.24,-9.30,-1.37,2024-01-20 15:14:44.347
88,0.24,-9.34,-1.37,2024-01-20 15:14:44.413
372,0.24,-9.30,-1.37,2024-01-20 15:14:44.446
290,0.20,-9.30,-1.37,2024-01-20 15:14:44.480
276,0.24,-9.34,-1.37,2024-01-20 15:14:44.513
331,0.24,-9.34,-1.29,2024-01-20 15:14:44.580
348,0.24,-9.34,-1.41,2024-01-20 15:14:44.613
393,0.24,-9.30,-1.37,2024-01-20 15:14:44.646
347,0.27,-9.30,-1.37,2024-01-20 15:14:44.713
274,0.20,-9.34,-1.37,2024-01-20 15:14:44.746
292,0.20,-9.30,-1.41,2024-01-20 15:14:44.779
351,0.24,-9.34,-1.37,2024-01-20 15:14:44.845
372,0.24,-9.30,-1.37,2024-01-20 15:14:44.879
383,0.27,-9.34,-1.41,2024-01-20 15:14:44.912
318,0.27,-9.34,-1.41,2024-01-20 15:14:44.979
281,0.24,-9.34,-1.33,2024-01-20 15:14:45.012
328,0.24,-9.30,-1.37,2024-01-20 15:14:45.046
375,0.24,-9.34,-1.37,2024-01-20 15:14:45.112
392,0.24,-9.34,-1.37,2024-01-20 15:14:45.145
361,0.20,-9.38,-1.37,2024-01-20 15:14:45.178
295,0.24,-9.30,-1.33,2024-01-20 15:14:45.212
659,0.27,-9.38,-1.33,2024-01-20 15:14:45.278
257,0.20,-9.30,-1.37,2024-01-20 15:14:45.312
398,0.24,-9.34,-1.41,2024-01-20 15:14:45.345
419,0.24,-9.30,-1.41,2024-01-20 15:14:45.411
349,0.24,-9.34,-1.37,2024-01-20 15:14:45.445
332,0.24,-9.34,-1.41,2024-01-20 15:14:45.478
346,0.24,-9.30,-1.37,2024-01-20 15:14:45.545
373,0.20,-9.30,-1.37,2024-01-20 15:14:45.578
394,0.20,-9.38,-1.37,2024-01-20 15:14:45.611
344,0.24,-9.38,-1.41,2024-01-20 15:14:45.677
300,0.24,-9.34,-1.33,2024-01-20 15:14:45.711
300,0.24,-9.34,-1.37,2024-01-20 15:14:45.744
330,0.20,-9.34,-1.37,2024-01-20 15:14:45.811
355,0.27,-9.38,-1.33,2024-01-20 15:14:45.844
367,0.24,-9.34,-1.37,2024-01-20 15:14:45.877
297,0.20,-9.30,-1.37,2024-01-20 15:14:45.911
273,0.24,-9.30,-1.37,2024-01-20 15:14:45.977
336,0.20,-9.30,-1.37,2024-01-20 15:14:46.010
368,0.24,-9.30,-1.37,2024-01-20 15:14:46.043
375,0.24,-9.34,-1.29,2024-01-20 15:14:46.110
323,0.27,-9.34,-1.33,2024-01-20 15:14:46.143
262,0.20,-9.34,-1.37,2024-01-20 15:14:46.177
590,0.24,-9.41,-1.37,2024-01-20 15:14:46.243
302,0.27,-9.34,-1.37,2024-01-20 15:14:46.276
380,0.27,-9.30,-1.33,2024-01-20 15:14:46.310
368,0.27,-9.34,-1.41,2024-01-20 15:14:46.376
309,0.24,-9.34,-1.37,2024-01-20 15:14:46.410
277,0.24,-9.41,-1.41,2024-01-20 15:14:46.443
317,0.16,-9.22,-1.37,2024-01-20 15:14:46.509
347,0.27,-9.34,-1.29,2024-01-20 15:14:46.543
356,0.24,-9.18,-1.33,2024-01-20 15:14:46.576
304,0.20,-9.14,-1.41,2024-01-20 15:14:46.609
262,0.27,-9.57,-1.37,2024-01-20 15:14:46.676
288,0.24,-8.90,-1.26,2024-01-20 15:14:46.709
323,0.24,-9.30,-1.37,2024-01-20 15:14:46.743
362,0.24,-9.38,-1.37,2024-01-20 15:14:46.809
349,0.24,-9.34,-1.41,2024-01-20 15:14:46.842
258,0.24,-9.30,-1.37,2024-01-20 15:14:46.876
267,0.27,-9.26,-1.33,2024-01-20 15:14:46.942
309,0.20,-9.18,-1.37,2024-01-20 15:14:46.975
351,0.27,-9.34,-1.37,2024-01-20 15:14:47.009
365,0.24,-9.30,-1.37,2024-01-20 15:14:47.075
307,0.24,-9.45,-1.37,2024-01-20 15:14:47.109
272,0.24,-9.41,-1.41,2024-01-20 15:14:47.142
302,0.24,-9.22,-1.37,2024-01-20 15:14:47.208
329,0.24,-9.34,-1.37,2024-01-20 15:14:47.241
364,0.24,-9.34,-1.37,2024-01-20 15:14:47.275
340,0.31,-9.26,-1.33,2024-01-20 15:14:47.310
659,0.20,-9.22,-1.26,2024-01-20 15:14:47.375
214,0.24,-9.30,-1.33,2024-01-20 15:14:47.407
339,0.20,-9.34,-1.37,2024-01-20 15:14:47.441
374,0.27,-9.34,-1.45,2024-01-20 15:14:47.507
399,0.27,-8.94,-1.33,2024-01-20 15:14:47.541
323,0.31,-9.10,-1.29,2024-01-20 15:14:47.574
278,0.27,-9.45,-1.41,2024-01-20 15:14:47.641
318,0.24,-9.22,-1.41,2024-01-20 15:14:47.675
346,0.24,-9.30,-1.37,2024-01-20 15:14:47.708
370,0.24,-9.30,-1.37,2024-01-20 15:14:47.774
345,0.27,-9.30,-1.41,2024-01-20 15:14:47.807
270,0.20,-9.34,-1.41,2024-01-20 15:14:47.841
284,0.24,-9.38,-1.37,2024-01-20 15:14:47.906
319,0.24,-9.30,-1.33,2024-01-20 15:14:47.940
354,0.16,-9.34,-1.33,2024-01-20 15:14:47.974
361,0.24,-9.30,-1.41,2024-01-20 15:14:48.007
288,0.27,-9.30,-1.37,2024-01-20 15:14:48.073
278,0.31,-9.34,-1.33,2024-01-20 15:14:48.107
310,0.20,-9.30,-1.33,2024-01-20 15:14:48.140
347,0.24,-9.38,-1.41,2024-01-20 15:14:48.206
379,0.24,-9.26,-1.33,2024-01-20 15:14:48.239
354,0.24,-9.30,-1.29,2024-01-20 15:14:48.273
288,0.27,-9.41,-1.41,2024-01-20 15:14:48.339
301,0.20,-9.34,-1.45,2024-01-20 15:14:48.373
329,0.24,-9.38,-1.37,2024-01-20 15:14:48.406
361,0.20,-9.30,-1.37,2024-01-20 15:14:48.473
334,0.24,-9.38,-1.37,2024-01-20 15:14:48.506
288,0.24,-9.34,-1.33,2024-01-20 15:14:48.539
290,0.27,-9.38,-1.41,2024-01-20 15:14:48.606
334,0.27,-9.34,-1.29,2024-01-20 15:14:48.639
381,0.24,-9.34,-1.29,2024-01-20 15:14:48.673
394,0.27,-9.34,-1.37,2024-01-20 15:14:48.705
317,0.24,-9.34,-1.41,2024-01-20 15:14:48.772
280,0.24,-9.38,-1.33,2024-01-20 15:14:48.805
296,0.24,-9.34,-1.41,2024-01-20 15:14:48.839
330,0.27,-9.34,-1.41,2024-01-20 15:14:48.905
372,0.24,-9.30,-1.37,2024-01-20 15:14:48.939
350,0.27,-9.30,-1.41,2024-01-20 15:14:48.972
269,0.24,-9.30,-1.41,2024-01-20 15:14:49.038
272,0.20,-9.34,-1.33,2024-01-20 15:14:49.071
319,0.24,-9.30,-1.37,2024-01-20 15:14:49.105
354,0.24,-9.34,-1.41,2024-01-20 15:14:49.171
380,0.20,-9.34,-1.45,2024-01-20 15:14:49.204
310,0.24,-9.38,-1.41,2024-01-20 15:14:49.238
271,0.24,-9.34,-1.37,2024-01-20 15:14:49.305
338,0.20,-9.26,-1.37,2024-01-20 15:14:49.338
340,0.24,-9.34,-1.33,2024-01-20 15:14:49.371
376,0.24,-9.34,-1.41,2024-01-20 15:14:49.404
351,0.24,-9.34,-1.33,2024-01-20 15:14:49.471
404,0.20,-9.30,-1.37,2024-01-20 15:14:49.505
30,0.24,-9.30,-1.37,2024-01-20 15:14:49.537
327,0.20,-9.30,-1.33,2024-01-20 15:14:49.604
374,0.20,-9.38,-1.41,2024-01-20 15:14:49.637
409,0.20,-9.30,-1.45,2024-01-20 15:14:49.670
366,0.20,-9.30,-1.37,2024-01-20 15:14:49.736
293,0.20,-9.30,-1.33,2024-01-20 15:14:49.770
309,0.24,-9.30,-1.41,2024-01-20 15:14:49.804
342,0.20,-9.34,-1.37,2024-01-20 15:14:49.870
376,0.24,-9.38,-1.37,2024-01-20 15:14:49.904
329,0.20,-9.30,-1.41,2024-01-20 15:14:49.936
264,0.24,-9.38,-1.37,2024-01-20 15:14:50.003
258,0.24,-9.34,-1.41,2024-01-20 15:14:50.036
365,0.16,-9.30,-1.37,2024-01-20 15:14:50.070
413,0.27,-9.38,-1.37,2024-01-20 15:14:50.102
339,0.27,-9.38,-1.33,2024-01-20 15:14:50.169
401,0.27,-9.38,-1.41,2024-01-20 15:14:50.203
283,0.24,-9.30,-1.41,2024-01-20 15:14:50.236
300,0.20,-9.34,-1.33,2024-01-20 15:14:50.303
459,0.20,-9.34,-1.33,2024-01-20 15:14:50.336
447,0.27,-9.30,-1.41,2024-01-20 15:14:50.369
512,0.24,-9.34,-1.41,2024-01-20 15:14:50.435
421,0.16,-9.34,-1.37,2024-01-20 15:14:50.469
539,0.20,-9.30,-1.37,2024-01-20 15:14:50.502
308,0.31,-9.30,-1.41,2024-01-20 15:14:50.569
281,0.20,-9.38,-1.41,2024-01-20 15:14:50.602
255,0.24,-9.38,-1.29,2024-01-20 15:14:50.636
133,0.20,-9.34,-1.37,2024-01-20 15:14:50.701
70,0.24,-9.34,-1.41,2024-01-20 15:14:50.735
141,0.27,-9.34,-1.45,2024-01-20 15:14:50.769
132,0.24,-9.34,-1.37,2024-01-20 15:14:50.802
205,0.20,-9.34,-1.33,2024-01-20 15:14:50.868
223,0.20,-9.34,-1.37,2024-01-20 15:14:50.901
110,0.24,-9.30,-1.37,2024-01-20 15:14:50.935
222,0.24,-9.38,-1.41,2024-01-20 15:14:51.001
284,0.12,-9.85,-1.02,2024-01-20 15:14:51.035
145,0.20,-8.94,-1.53,2024-01-20 15:14:51.068
334,0.51,-9.38,-1.65,2024-01-20 15:14:51.135
598,0.20,-9.41,-1.37,2024-01-20 15:14:51.168
444,0.04,-9.34,-1.18,2024-01-20 15:14:51.201
476,0.31,-9.41,-1.18,2024-01-20 15:14:51.267
360,0.20,-9.34,-1.53,2024-01-20 15:14:51.301
500,0.39,-9.22,-1.65,2024-01-20 15:14:51.334
479,0.24,-9.34,-1.26,2024-01-20 15:14:51.368
173,0.12,-9.41,-1.14,2024-01-20 15:14:51.433
287,0.35,-9.34,-1.45,2024-01-20 15:14:51.467
372,0.27,-9.34,-1.61,2024-01-20 15:14:51.501
467,0.20,-9.38,-1.37,2024-01-20 15:14:51.567
478,0.20,-9.41,-1.18,2024-01-20 15:14:51.600
361,0.16,-9.34,-1.37,2024-01-20 15:14:51.634
304,0.24,-9.30,-1.49,2024-01-20 15:14:51.699
326,0.24,-9.34,-1.45,2024-01-20 15:14:51.733
361,0.20,-9.38,-1.33,2024-01-20 15:14:51.766
389,0.27,-9.30,-1.33,2024-01-20 15:14:51.833
373,0.24,-9.38,-1.41,2024-01-20 15:14:51.867
309,0.20,-9.30,-1.33,2024-01-20 15:14:51.900
353,0.24,-9.38,-1.37,2024-01-20 15:14:51.966
417,0.20,-9.30,-1.45,2024-01-20 15:14:52.000
480,0.27,-9.34,-1.37,2024-01-20 15:14:52.034
435,0.20,-9.38,-1.29,2024-01-20 15:14:52.066
315,0.24,-9.38,-1.33,2024-01-20 15:14:52.132
288,0.24,-9.30,-1.37,2024-01-20 15:14:52.166
460,0.20,-9.34,-1.33,2024-01-20 15:14:52.199
371,0.24,-9.34,-1.37,2024-01-20 15:14:52.266
380,0.24,-9.30,-1.41,2024-01-20 15:14:52.299
352,0.20,-9.30,-1.41,2024-01-20 15:14:52.333
283,0.24,-9.30,-1.33,2024-01-20 15:14:52.399
331,0.20,-9.34,-1.45,2024-01-20 15:14:52.432
375,0.27,-9.34,-1.41,2024-01-20 15:14:52.465
381,0.24,-9.34,-1.41,2024-01-20 15:14:52.531
345,0.24,-9.38,-1.29,2024-01-20 15:14:52.565
255,0.27,-9.34,-1.33,2024-01-20 15:14:52.599
259,0.20,-9.41,-1.45,2024-01-20 15:14:52.665
298,0.27,-9.57,-1.49,2024-01-20 15:14:52.698
337,0.20,-8.94,-1.29,2024-01-20 15:14:52.731
358,0.27,-9.61,-1.49,2024-01-20 15:14:52.765
286,0.24,-9.26,-1.37,2024-01-20 15:14:52.831
242,0.24,-9.30,-1.33,2024-01-20 15:14:52.865
269,0.20,-9.34,-1.37,2024-01-20 15:14:52.898
313,0.27,-9.41,-1.45,2024-01-20 15:14:52.964
356,0.27,-9.65,-1.41,2024-01-20 15:14:52.998
657,0.27,-9.34,-1.37,2024-01-20 15:14:53.031
255,0.20,-9.34,-1.41,2024-01-20 15:14:53.097
275,0.27,-9.18,-1.33,2024-01-20 15:14:53.131
330,0.24,-9.30,-1.37,2024-01-20 15:14:53.165
397,0.31,-9.38,-1.37,2024-01-20 15:14:53.230
401,0.27,-9.41,-1.33,2024-01-20 15:14:53.264
305,0.24,-9.38,-1.37,2024-01-20 15:14:53.297
261,0.24,-9.34,-1.37,2024-01-20 15:14:53.364
298,0.20,-9.65,-1.41,2024-01-20 15:14:53.397
348,0.24,-9.34,-1.41,2024-01-20 15:14:53.430
383,0.20,-9.34,-1.37,2024-01-20 15:14:53.463
330,0.24,-9.30,-1.41,2024-01-20 15:14:53.530
250,0.27,-9.38,-1.37,2024-01-20 15:14:53.564
286,0.27,-9.53,-1.41,2024-01-20 15:14:53.598
344,0.27,-9.34,-1.37,2024-01-20 15:14:53.663
376,0.24,-9.34,-1.33,2024-01-20 15:14:53.697
375,0.20,-9.34,-1.45,2024-01-20 15:14:53.730
328,0.31,-9.30,-1.33,2024-01-20 15:14:53.796
0,0.24,-9.26,-1.41,2024-01-20 15:14:53.829
286,0.27,-9.45,-1.37,2024-01-20 15:14:53.862
374,0.24,-9.34,-1.41,2024-01-20 15:14:53.929
